Vernier Format 2
Untitled.cmbl 10/24/2024 10:57:23 .
Latest
Time	Position	Velocity 1	Acceleration 1	Angle 2	Velocity 2	Acceleration 2
t	x	v 1	acc 1	Angle 2	v 2	acc 2
s	m	m/s	m/s²	rad	rad/s	rad/s²

0.05	1.0789065	-0.302602222222	0.832886574074	0	-0.271495661421	1.27990811813
0.1	1.0627855	-0.269779027778	1.11300324074	-0.0174532925199	-0.193925472444	1.06335800723
0.15	1.0494085	-0.211230833333	1.54072106481	-0.0174532925199	-0.168715161026	1.05689382482
0.2	1.0401475	-0.122527222222	2.05320964506	-0.0349065850399	-0.126051557088	1.61927769491
0.25	1.035517	0.00457333333333	2.34354220679	-0.0349065850399	0	2.02113436836
0.3	1.040319	0.136151944444	2.1051625	-0.0349065850399	0.126051557088	1.51585077627
0.35	1.0507805	0.233144722222	1.43747700617	-0.0174532925199	0.164836651577	0.69489960959
0.4	1.065358	0.287357777778	0.552346450617	-0.0174532925199	0.174532925199	0.188538653765
0.45	1.081479	0.291264166667	-0.40858287037	0	0.174532925199	-0.150830923012
0.5	1.096571	0.244006388889	-1.29768333333	0	0.164836651577	-0.544068686578
0.55	1.1077185	0.152158611111	-1.9553117284	0.0174532925199	0.135747830711	-1.19048692806
0.6	1.1128635	0.0338236111111	-2.25723641975	0.0174532925199	0.0290888208666	-1.5136960488
0.65	1.11132	-0.0901327777778	-2.15587145062	0.0174532925199	-0.0290888208666	-1.5136960488
0.7	1.103088	-0.1963675	-1.68895740741	0.0174532925199	-0.135747830711	-1.19048692806
0.75	1.090397	-0.270017222222	-0.943620524691	0	-0.164836651577	-0.544068686578
0.8	1.074276	-0.298314722222	-0.0192143518519	0	-0.174532925199	-0.150830923012
0.85	1.0583265	-0.272589722222	0.918107253086	-0.0174532925199	-0.174532925199	0.188538653765
0.9	1.045121	-0.1997975	1.69430354938	-0.0174532925199	-0.164836651577	0.69489960959
0.95	1.036889	-0.0912761111111	2.18000848765	-0.0349065850399	-0.126051557088	1.5136960488
1	1.0353455	0.0333472222222	2.29698842593	-0.0349065850399	0	2.00389654859
1.05	1.0404905	0.152920833333	2.0451375	-0.0349065850399	0.126051557088	1.5136960488
1.1	1.0514665	0.250866388889	1.45272145062	-0.0174532925199	0.164836651577	0.69489960959
1.15	1.0669015	0.312225277778	0.538372376543	-0.0174532925199	0.174532925199	0.188538653765
1.2	1.085252	0.313273333333	-0.549011728395	0	0.174532925199	-0.150830923012
1.25	1.10103	0.250104166667	-1.48527469136	0	0.164836651577	-0.544068686578
1.3	1.111663	0.149205	-2.07557345679	0.0174532925199	0.135747830711	-1.19048692806
1.35	1.1166365	0.0287738888889	-2.31180941358	0.0174532925199	0.0290888208666	-1.5136960488
1.4	1.11475	-0.0956588888889	-2.18874228395	0.0174532925199	-0.0290888208666	-1.5136960488
1.45	1.106518	-0.205037777778	-1.70028487654	0.0174532925199	-0.135747830711	-1.19048692806
1.5	1.092798	-0.278782777778	-0.904291975309	0	-0.164836651577	-0.544068686578
1.55	1.0765055	-0.301363611111	0.0349351851852	0	-0.174532925199	-0.150830923012
1.6	1.060556	-0.272780277778	0.929487654321	-0.0174532925199	-0.174532925199	0.188538653765
1.65	1.047522	-0.200655	1.64687638889	-0.0174532925199	-0.164836651577	0.69489960959
1.7	1.0394615	-0.0999463888889	2.13607484568	-0.0349065850399	-0.126051557088	1.5136960488
1.75	1.0363745	0.0251533333333	2.30085246914	-0.0349065850399	0	2.00389654859
1.8	1.0418625	0.150538888889	1.99749861111	-0.0349065850399	0.126051557088	1.5136960488
1.85	1.05301	0.241338611111	1.3033470679	-0.0174532925199	0.164836651577	0.69489960959
1.9	1.067759	0.288405833333	0.402654475309	-0.0174532925199	0.174532925199	0.183151835086
1.95	1.08388	0.284118333333	-0.560550925926	0	0.174532925199	-0.183151835086
2	1.098286	0.228380833333	-1.41979768519	0	0.164836651577	-0.689512790911
2.05	1.1084045	0.131388055556	-2.01618364198	0.0174532925199	0.126051557088	-1.48137513672
2.1	1.112349	0.0116238888889	-2.24416219136	0.0174532925199	0	-1.85306562557
2.15	1.109605	-0.109378888889	-2.07335030864	0.0174532925199	-0.116355283466	-1.19048692806
2.2	1.1005155	-0.209420555556	-1.55720941358	0	-0.135747830711	-0.210085928481
2.25	1.08731	-0.275066944444	-0.786729783951	0	-0.0775701889775	-0.220859565839
2.3	1.071189	-0.294884722222	0.141169907407	0	-0.145444104333	-0.490200499789
2.35	1.0555825	-0.260870555556	1.06118271605	-0.0174532925199	-0.164836651577	-0.102349554901
2.4	1.0432345	-0.180837222222	1.79169861111	-0.0174532925199	-0.164836651577	0.549455505257
2.45	1.036203	-0.0687905555556	2.2082212963	-0.0349065850399	-0.126051557088	1.48137513672
2.5	1.03586	0.0554516666667	2.24876728395	-0.0349065850399	0	1.99850972991
2.55	1.0422055	0.170261388889	1.92884567901	-0.0349065850399	0.126051557088	1.5136960488
2.6	1.0538675	0.259917777778	1.29847731481	-0.0174532925199	0.164836651577	0.69489960959
2.65	1.069474	0.313178055556	0.371900925926	-0.0174532925199	0.174532925199	0.183151835086
2.7	1.0878245	0.304984166667	-0.706114197531	0	0.174532925199	-0.183151835086
2.75	1.102745	0.233621111111	-1.59701435185	0	0.164836651577	-0.69489960959
2.8	1.112349	0.129196666667	-2.1266529321	0.0174532925199	0.126051557088	-1.5136960488
2.85	1.1162935	0.00743166666667	-2.3022287037	0.0174532925199	0	-1.99850972991
2.9	1.1132065	-0.115381388889	-2.10987345679	0.0174532925199	-0.126051557088	-1.48137513672
2.95	1.1039455	-0.217995555556	-1.56700185185	0	-0.164836651577	-0.549455505257
3	1.0898825	-0.282975	-0.763175	0	-0.164836651577	0.102349554901
3.05	1.07359	-0.298791111111	0.15694367284	-0.0174532925199	-0.145444104333	0.490200499789
3.1	1.0579835	-0.264395833333	1.02788842593	-0.0174532925199	-0.0775701889775	0.220859565839
3.15	1.045807	-0.19208	1.77656003086	-0.0174532925199	-0.135747830711	0.210085928481
3.2	1.036889	-0.0778419444444	2.27263966049	-0.0349065850399	-0.116355283466	1.19048692806
3.25	1.0370605	0.0564044444444	2.28693132716	-0.0349065850399	0	1.85306562557
3.3	1.0435775	0.170261388889	1.84463070988	-0.0349065850399	0.126051557088	1.48137513672
3.35	1.055411	0.251628611111	1.11130941358	-0.0174532925199	0.164836651577	0.689512790911
3.4	1.070503	0.288024722222	0.207917283951	-0.0174532925199	0.174532925199	0.183151835086
3.45	1.086281	0.273637777778	-0.7203	0	0.174532925199	-0.183151835086
3.5	1.0998295	0.210945	-1.52116265432	0	0.164836651577	-0.69489960959
3.55	1.108919	0.110522222222	-2.05143641975	0.0174532925199	0.126051557088	-1.5136960488
3.6	1.111663	-0.00924194444444	-2.21388503086	0.0174532925199	0	-1.99850972991
3.65	1.10789	-0.126624166667	-1.98818256173	0.0174532925199	-0.126051557088	-1.48137513672
3.7	1.0981145	-0.2220925	-1.41704521605	0	-0.164836651577	-0.549455505257
3.75	1.0840515	-0.277925277778	-0.606178395062	0	-0.164836651577	0.102349554901
3.8	1.068445	-0.286786111111	0.306953240741	-0.0174532925199	-0.145444104333	0.490200499789
3.85	1.053353	-0.245816666667	1.18017407407	-0.0174532925199	-0.0775701889775	0.220859565839
3.9	1.042034	-0.160543055556	1.85384089506	-0.0174532925199	-0.135747830711	0.210085928481
3.95	1.036203	-0.0477341666667	2.22039567901	-0.0349065850399	-0.116355283466	1.19048692806
4	1.036889	0.07546	2.23204074074	-0.0349065850399	0	1.85306562557
4.05	1.044092	0.1895075	1.87586064815	-0.0349065850399	0.126051557088	1.48137513672
4.1	1.0566115	0.279926111111	1.12703024691	-0.0174532925199	0.164836651577	0.689512790911
4.15	1.0744475	0.315274166667	0.0978714506173	-0.0174532925199	0.174532925199	0.183151835086
4.2	1.0909115	0.286786111111	-0.882431018519	0	0.174532925199	-0.183151835086
4.25	1.104803	0.215041944444	-1.60828888889	0	0.164836651577	-0.69489960959
4.3	1.1135495	0.113285277778	-2.03492160494	0.0174532925199	0.126051557088	-1.5136960488
4.35	1.1162935	0.00314416666667	-2.21790787037	0.0174532925199	0	-1.99850972991
4.4	1.114407	-0.117096388889	-2.13903904321	0.0174532925199	-0.126051557088	-1.48137513672
4.45	1.10446	-0.228857222222	-1.63459614198	0	-0.164836651577	-0.549455505257
4.5	1.0898825	-0.300315555556	-0.705690740741	0	-0.164836651577	0.10773637358
4.55	1.071532	-0.306413333333	0.380211265432	-0.0174532925199	-0.145444104333	0.522521411863
4.6	1.0566115	-0.251342777778	1.2606308642	-0.0174532925199	-0.0775701889775	0.366303670172
4.65	1.045464	-0.166355	1.83108009259	-0.0174532925199	-0.126051557088	0.500974137147
4.7	1.03929	-0.0609777777778	2.16762237654	-0.0349065850399	-0.0872664625997	1.52985650483
4.75	1.0384325	0.06174	2.19345324074	-0.0349065850399	0.0872664625997	1.52985650483
4.8	1.0456355	0.177883611111	1.77788333333	-0.0174532925199	0.126051557088	0.500974137147
4.85	1.0579835	0.254772777778	1.00565694444	-0.0174532925199	0.0775701889775	0.366303670172
4.9	1.0730755	0.283737222222	0.0822564814815	-0.0174532925199	0.145444104333	0.522521411863
4.95	1.088339	0.262395	-0.83304537037	0	0.164836651577	0.10773637358
5	1.1012015	0.194557222222	-1.59616743827	0	0.164836651577	-0.549455505257
5.05	1.109262	0.0911808333333	-2.07170941358	0.0174532925199	0.126051557088	-1.48137513672
5.1	1.110977	-0.0282022222222	-2.16910447531	0.0174532925199	0	-1.99312291123
5.15	1.106175	-0.141582777778	-1.88014814815	0.0174532925199	-0.126051557088	-1.48137513672
5.2	1.0957135	-0.228571388889	-1.27915709877	0	-0.164836651577	-0.549455505257
5.25	1.081822	-0.277734722222	-0.46860787037	0	-0.164836651577	0.10773637358
5.3	1.066044	-0.279640277778	0.439071759259	-0.0174532925199	-0.145444104333	0.522521411863
5.35	1.0518095	-0.231620277778	1.28746743827	-0.0174532925199	-0.0775701889775	0.366303670172
5.4	1.0411765	-0.141963888889	1.92000601852	-0.0174532925199	-0.126051557088	0.500974137147
5.45	1.036546	-0.0261061111111	2.2293412037	-0.0349065850399	-0.0872664625997	1.52985650483
5.5	1.0384325	0.0948966666667	2.18985385802	-0.0349065850399	0.0872664625997	1.52985650483
5.55	1.046493	0.205037777778	1.81842932099	-0.0174532925199	0.126051557088	0.500974137147
5.6	1.0596985	0.291454722222	1.08415524691	-0.0174532925199	0.0775701889775	0.366303670172
5.65	1.0775345	0.329565833333	0.0115921296296	-0.0174532925199	0.145444104333	0.522521411863
5.7	1.095885	0.295170555556	-1.10733950617	0	0.164836651577	0.10773637358
5.75	1.1094335	0.203799166667	-1.90926080247	0	0.164836651577	-0.549455505257
5.8	1.117151	0.0860358333333	-2.28391419753	0.0174532925199	0.126051557088	-1.48137513672
5.85	1.1183515	-0.0400166666667	-2.25983009259	0.0174532925199	0	-1.99850972991
5.9	1.112692	-0.154254722222	-1.87406095679	0.0174532925199	-0.126051557088	-1.5136960488
5.95	1.101716	-0.238861388889	-1.20446990741	0	-0.164836651577	-0.69489960959
6	1.0871385	-0.281926944444	-0.359832407407	0	-0.174532925199	-0.183151835086
6.05	1.071532	-0.276019722222	0.506824845679	-0.0174532925199	-0.174532925199	0.183151835086
6.1	1.0576405	-0.224950833333	1.22760123457	-0.0174532925199	-0.164836651577	0.689512790911
6.15	1.0476935	-0.141201666667	1.68779290123	-0.0349065850399	-0.126051557088	1.48137513672
6.2	1.043406	-0.0477341666667	1.92879274691	-0.0349065850399	0	1.85306562557
6.25	1.0425485	0.05488	2.01321944444	-0.0349065850399	0.116355283466	1.19048692806
6.3	1.0480365	0.168451111111	1.73813132716	-0.0174532925199	0.135747830711	0.210085928481
6.35	1.0607275	0.250866388889	0.991206481481	-0.0174532925199	0.0775701889775	0.220859565839
6.4	1.075648	0.2769725	0.0150327160494	-0.0174532925199	0.145444104333	0.490200499789
6.45	1.0905685	0.249437222222	-0.921336111111	0	0.164836651577	0.102349554901
6.5	1.102402	0.176073333333	-1.64804089506	0	0.164836651577	-0.549455505257
6.55	1.1094335	0.0719347222222	-2.05911157407	0.0174532925199	0.126051557088	-1.48137513672
6.6	1.1101195	-0.0450663888889	-2.09812253086	0.0174532925199	0	-1.99312291123
6.65	1.10446	-0.151968055556	-1.78328240741	0.0174532925199	-0.126051557088	-1.48137513672
6.7	1.0939985	-0.234955	-1.17408688272	0	-0.164836651577	-0.549455505257
6.75	1.079421	-0.278973333333	-0.337812654321	0	-0.164836651577	0.10773637358
6.8	1.063986	-0.272113333333	0.577065740741	-0.0174532925199	-0.145444104333	0.522521411863
6.85	1.050266	-0.217233333333	1.39888950617	-0.0174532925199	-0.0775701889775	0.371690488851
6.9	1.040662	-0.122908333333	1.99612237654	-0.0174532925199	-0.126051557088	0.53329504922
6.95	1.0370605	-0.00504972222222	2.27967962963	-0.0349065850399	-0.0872664625997	1.67530060917
7	1.039976	0.118430277778	2.20345740741	-0.0349065850399	0.0969627362219	1.8207447135
7.05	1.0490655	0.232763611111	1.69245092593	-0.0174532925199	0.155140377955	0.840343713923
7.1	1.064672	0.309271666667	0.720088271605	-0.0174532925199	0.164836651577	0.043094549432
7.15	1.0833655	0.31213	-0.411547067901	0	0.145444104333	-0.457879587715
7.2	1.0984575	0.254391666667	-1.28535015432	0	0.0775701889775	-0.21547274716
7.25	1.109605	0.1689275	-1.82748070988	0	0.135747830711	-0.210085928481
7.3	1.116122	0.0630738888889	-2.11278472222	0.0174532925199	0.116355283466	-1.19048692806
7.35	1.116465	-0.0534508333333	-2.10368040123	0.0174532925199	0	-1.85306562557
7.4	1.1104625	-0.161591111111	-1.75284645062	0.0174532925199	-0.126051557088	-1.48137513672
7.45	1.0991435	-0.241529166667	-1.09574737654	0	-0.164836651577	-0.689512790911
7.5	1.084566	-0.278878055556	-0.249416049383	0	-0.174532925199	-0.183151835086
7.55	1.0693025	-0.267635277778	0.622481481481	-0.0174532925199	-0.174532925199	0.183151835086
7.6	1.0559255	-0.211135555556	1.35664969136	-0.0174532925199	-0.164836651577	0.69489960959
7.65	1.0466645	-0.118811388889	1.79302191358	-0.0349065850399	-0.126051557088	1.5136960488
7.7	1.0439205	-0.0189602777778	1.92027067901	-0.0349065850399	0	1.99850972991
7.75	1.044778	0.0812719444444	1.81440648148	-0.0349065850399	0.126051557088	1.48137513672
7.8	1.052324	0.172262222222	1.44954552469	-0.0174532925199	0.164836651577	0.549455505257
7.85	1.062957	0.237908611111	0.808114351852	-0.0174532925199	0.164836651577	-0.102349554901
7.9	1.077706	0.263633611111	-0.062512808642	0	0.145444104333	-0.490200499789
7.95	1.091769	0.232858888889	-0.958018055556	0	0.0775701889775	-0.220859565839
8	1.102745	0.158542222222	-1.64677052469	0	0.135747830711	-0.210085928481
8.05	1.1087475	0.0553563888889	-2.02190030864	0.0174532925199	0.116355283466	-1.19048692806
8.1	1.1087475	-0.0586911111111	-2.02539382716	0.0174532925199	0	-1.8476788069
8.15	1.102402	-0.161781666667	-1.66900200617	0.0174532925199	-0.126051557088	-1.44905422465
8.2	1.091426	-0.236765277778	-1.02931759259	0	-0.164836651577	-0.544068686578
8.25	1.0771915	-0.272685	-0.197119135802	0	-0.164836651577	0.10773637358
8.3	1.0620995	-0.258869722222	0.688011419753	-0.0174532925199	-0.145444104333	0.522521411862
8.35	1.0494085	-0.198749444444	1.45489166667	-0.0174532925199	-0.0775701889775	0.371690488851
8.4	1.0408335	-0.103662222222	1.98823549383	-0.0174532925199	-0.126051557088	0.53329504922
8.45	1.038261	0.0119097222222	2.21748441358	-0.0349065850399	-0.0872664625997	1.67530060917
8.5	1.0418625	0.131388055556	2.08774783951	-0.0349065850399	0.0969627362219	1.8207447135
8.55	1.051638	0.239433055556	1.50755910494	-0.0174532925199	0.155140377955	0.840343713923
8.6	1.0675875	0.302602222222	0.499731944444	-0.0174532925199	0.164836651577	0.037707730753
8.65	1.085252	0.292693333333	-0.574577932099	0	0.145444104333	-0.490200499789
8.7	1.099315	0.226665833333	-1.29773626543	0	0.0775701889775	-0.360916851493
8.75	1.1080615	0.146251388889	-1.66566728395	0	0.126051557088	-0.500974137147
8.8	1.1138925	0.0601202777778	-1.94319027778	0.0174532925199	0.0872664625997	-1.52985650483
8.85	1.115436	-0.0510688888889	-2.07853765432	0.0174532925199	-0.0872664625997	-1.52985650483
8.9	1.1090905	-0.165402222222	-1.81594151235	0	-0.126051557088	-0.500974137147
8.95	1.0977715	-0.2529625	-1.10665138889	0	-0.0775701889775	-0.366303670172
9	1.081479	-0.287357777778	-0.133388888889	0	-0.145444104333	-0.522521411862
9.05	1.0665585	-0.262966666667	0.79017037037	-0.0174532925199	-0.164836651577	-0.10773637358
9.1	1.053696	-0.198558888889	1.48543348765	-0.0174532925199	-0.164836651577	0.549455505257
9.15	1.0452925	-0.101661388889	1.8692970679	-0.0349065850399	-0.126051557088	1.48137513672
9.2	1.0432345	0.00381111111111	1.8995212963	-0.0349065850399	0	1.99312291123
9.25	1.046493	0.0955636111111	1.71187700617	-0.0349065850399	0.126051557088	1.48137513672
9.3	1.0528385	0.180456111111	1.34029367284	-0.0174532925199	0.164836651577	0.549455505257
9.35	1.0651865	0.244101666667	0.657628395062	-0.0174532925199	0.164836651577	-0.10773637358
9.4	1.0795925	0.255725555556	-0.224273302469	0	0.145444104333	-0.522521411862
9.45	1.092798	0.218281388889	-1.04853194444	0	0.0775701889775	-0.366303670172
9.5	1.1029165	0.141963888889	-1.6637617284	0	0.126051557088	-0.500974137147
9.55	1.1080615	0.0397308333333	-1.97373209877	0.0174532925199	0.0872664625997	-1.52985650483
9.6	1.107204	-0.0699338888889	-1.92815756173	0.0174532925199	-0.0872664625997	-1.52446968616
9.65	1.1005155	-0.166736111111	-1.54577608025	0	-0.126051557088	-0.468653225073
9.7	1.089368	-0.234859722222	-0.901751234568	0	-0.0775701889775	-0.220859565839
9.75	1.0754765	-0.263728888889	-0.0972362654321	0	-0.135747830711	-0.239174749347
9.8	1.0610705	-0.245721388889	0.715297916667	-0.0174532925199	-0.135747830711	0.179381062011
9.85	1.0490655	-0.183123888889	1.30792569444	-0.0174532925199	-0.0775701889775	-0.0274727752629
9.9	1.0415195	-0.0980408333333	1.52906541667	-0.0174532925199	-0.13962634016	-0.179381062011
9.95	1.0394615	-0.0151015277778	1.45957615741	-0.0349065850399	-0.140595967522	0.358762124021
10	1.043749	0.0443994444444	1.32261435185	-0.0349065850399	-0.0775701889775	0.837111622716
