Vernier Format 2
Untitled.cmbl 10/24/2024 11:00:46 .
Latest
Time	Position	Velocity 1	Acceleration 1	Angle 2	Velocity 2	Acceleration 2
t	x	v 1	acc 1	Angle 2	v 2	acc 2
s	m	m/s	m/s²	rad	rad/s	rad/s²

0.05	0.9019185	-0.316512777778	0.435228888889	-0.0174532925199	-0.252103114177	1.66775906302
0.1	0.885626	-0.299458055556	0.577335694444	-0.0349065850399	-0.155140377955	1.21688233958
0.15	0.870534	-0.269026333333	0.799920462963	-0.0349065850399	-0.0814486984264	0.449260677828
0.2	0.857843	-0.220758611111	1.05294648148	-0.0349065850399	-0.135747830711	0.105581646108
0.25	0.8484105	-0.163973055556	1.32053941358	-0.0523598775598	-0.126051557088	0.695976973326
0.3	0.8405215	-0.0882272222222	1.5505187963	-0.0523598775598	-0.0387850944888	0.890979809506
0.35	0.838978	-0.000381111111112	1.59849645062	-0.0523598775598	-0.00969627362219	0.667965516195
0.4	0.841036	0.0787947222222	1.4746882716	-0.0523598775598	0.00969627362219	0.69489960959
0.45	0.8470385	0.15092	1.23966975309	-0.0523598775598	0.0387850944888	1.03965600505
0.5	0.8566425	0.208658333333	0.890264969136	-0.0523598775598	0.135747830711	1.00733509297
0.55	0.8693335	0.238099166667	0.568384876543	-0.0349065850399	0.164836651577	0.506360955826
0.6	0.8806525	0.258965	0.348610802469	-0.0349065850399	0.174532925199	0.150830923012
0.65	0.8950585	0.2769725	0.0575901234568	-0.0174532925199	0.174532925199	-0.150830923012
0.7	0.9094645	0.27097	-0.342470679012	-0.0174532925199	0.164836651577	-0.500974137147
0.75	0.9231845	0.241624444444	-0.727339969136	0	0.135747830711	-0.969627362219
0.8	0.934332	0.193699722222	-1.01973688272	0	0.0387850944888	-0.85650416996
0.85	0.942907	0.135580277778	-1.21071589506	0	0.0193925472444	-0.220859565839
0.9	0.9482235	0.0693622222222	-1.31319243827	0	0.0290888208666	0.150830923012
0.95	0.9499385	0.000666944444444	-1.32393765432	0	0.0872664625997	-0.366303670172
1	0.9482235	-0.0664086111111	-1.24824475309	0.0174532925199	0	-1.02349554901
1.05	0.9430785	-0.127576944444	-1.08844274691	0	-0.0872664625997	-0.511747774505
1.1	0.935018	-0.177978888889	-0.860887654321	0	-0.0387850944888	-0.172378197728
1.15	0.924728	-0.215041944444	-0.588181481481	0	-0.048481368111	-0.705673246948
1.2	0.913066	-0.238575555556	-0.272547376543	0	-0.135747830711	-0.824183257886
1.25	0.9002035	-0.245245	0.091625462963	-0.0174532925199	-0.164836651577	-0.328595939419
1.3	0.887341	-0.226761111111	0.410012037037	-0.0174532925199	-0.164836651577	0.145444104333
1.35	0.877394	-0.199988055556	0.647624228395	-0.0349065850399	-0.145444104333	0.490200499789
1.4	0.867104	-0.164544722222	0.903021604938	-0.0349065850399	-0.0775701889775	0.188538653765
1.45	0.8597295	-0.106425277778	1.08103225309	-0.0349065850399	-0.135747830711	0.0592550054689
1.5	0.8566425	-0.0492586111111	1.1231662037	-0.0523598775598	-0.126051557088	0.861890988639
1.55	0.855099	0.00562138888889	1.13523472222	-0.0523598775598	-0.0290888208666	1.33054421371
1.6	0.856814	0.0646936111111	1.1017816358	-0.0523598775598	0.0290888208666	1.33054421371
1.65	0.861273	0.125576111111	0.894076080247	-0.0523598775598	0.126051557088	0.85650416996
1.7	0.8710485	0.157303611111	0.615388580247	-0.0349065850399	0.135747830711	0.026934093395
1.75	0.877394	0.1775025	0.476018364198	-0.0349065850399	0.0775701889775	0.043094549432
1.8	0.887684	0.210945	0.241423302469	-0.0349065850399	0.135747830711	0.199312291123
1.85	0.9005465	0.207229166667	-0.0800333333333	-0.0174532925199	0.135747830711	-0.199312291123
1.9	0.9087785	0.193795	-0.260743518519	-0.0174532925199	0.0775701889775	-0.037707730753
1.95	0.9194115	0.183123888889	-0.476706481481	-0.0174532925199	0.135747830711	0.010773637358
2	0.928158	0.150729444444	-0.757458333333	0	0.126051557088	-0.673352334874
2.05	0.935018	0.105758333333	-0.998405246914	0	0.0387850944888	-0.851117351281
2.1	0.939477	0.0448758333333	-1.11236805556	0	0.00969627362219	-0.48481368111
2.15	0.9393055	-0.0131483333333	-1.0676933642	0	0	-0.220859565839
2.2	0.9375905	-0.0618352777778	-0.994223611111	0	0	-0.220859565839
2.25	0.933303	-0.111284444444	-0.911226080247	0	-0.00969627362219	-0.48481368111
2.3	0.9266145	-0.159590277778	-0.699021296296	0	-0.0387850944888	-0.851117351281
2.35	0.9163245	-0.187220833333	-0.373118364198	0	-0.126051557088	-0.673352334874
2.4	0.906892	-0.193318611111	-0.0982419753086	-0.0174532925199	-0.135747830711	0.016160456037
2.45	0.896945	-0.193509166667	0.114015740741	-0.0174532925199	-0.0775701889775	0
2.5	0.8871695	-0.183219166667	0.335801234568	-0.0174532925199	-0.135747830711	-0.016160456037
2.55	0.87808	-0.160638333333	0.559704012346	-0.0349065850399	-0.126051557088	0.673352334874
2.6	0.870534	-0.125004444444	0.736285493827	-0.0349065850399	-0.0387850944888	0.851117351281
2.65	0.865389	-0.0835586111111	0.839556018519	-0.0349065850399	-0.00969627362219	0.479426862431
2.7	0.8621305	-0.0396355555556	0.901486574074	-0.0349065850399	0	0.183151835086
2.75	0.861273	0.00733638888889	0.936051234568	-0.0349065850399	0	0.043094549432
2.8	0.8628165	0.0557375	0.921971296296	-0.0349065850399	0	0.043094549432
2.85	0.8669325	0.101756666667	0.841249845679	-0.0349065850399	0	0.183151835086
2.9	0.872935	0.145584444444	0.639525617284	-0.0349065850399	0.00969627362219	0.479426862431
2.95	0.8823675	0.170547222222	0.348240277778	-0.0349065850399	0.0387850944888	0.851117351281
3	0.8909425	0.176359166667	0.121373302469	-0.0349065850399	0.126051557088	0.673352334874
3.05	0.900032	0.1775025	-0.0236606481482	-0.0174532925199	0.135747830711	-0.016160456037
3.1	0.9084355	0.17836	-0.235653703704	-0.0174532925199	0.0775701889775	0
3.15	0.918897	0.159304444444	-0.533873148148	-0.0174532925199	0.135747830711	0.016160456037
3.2	0.925414	0.118716111111	-0.728133950617	0	0.126051557088	-0.673352334874
3.25	0.930216	0.0830822222222	-0.846278395062	0	0.0387850944888	-0.85650416996
3.3	0.934332	0.0354433333333	-0.952777777778	0	0.00969627362219	-0.517134593184
3.35	0.9341605	-0.0183886111111	-0.928746604938	0	0	-0.366303670172
3.4	0.931931	-0.0624069444444	-0.797633796296	0	-0.00969627362219	-0.511747774505
3.45	0.9276435	-0.0990888888889	-0.629362654321	0	-0.0387850944888	-0.824183257886
3.5	0.921641	-0.125861944444	-0.448176080247	0	-0.126051557088	-0.527908230541
3.55	0.9146095	-0.142440277778	-0.296049228395	-0.0174532925199	-0.126051557088	0.307048664703
3.6	0.907235	-0.154159444444	-0.163877777778	-0.0174532925199	-0.048481368111	0.339369576777
3.65	0.899003	-0.159685555556	-0.00936898148148	-0.0174532925199	-0.048481368111	-0.339369576777
3.7	0.891114	-0.158828055556	0.207652623457	-0.0174532925199	-0.126051557088	-0.307048664703
3.75	0.882196	-0.139963055556	0.440236265432	-0.0349065850399	-0.126051557088	0.527908230541
3.8	0.8765365	-0.108140277778	0.562456481481	-0.0349065850399	-0.0387850944888	0.818796439207
3.85	0.8720775	-0.0842255555556	0.680759722222	-0.0349065850399	-0.00969627362219	0.474040043752
3.9	0.8672755	-0.0443041666667	0.844531635802	-0.0349065850399	0	0.188538653765
3.95	0.8669325	0.00752694444444	0.867186574074	-0.0349065850399	0	0.0754154615059
4	0.8686475	0.0495444444444	0.752482716049	-0.0349065850399	0	0.188538653765
4.05	0.8724205	0.0813672222222	0.636085030864	-0.0349065850399	0.00969627362219	0.474040043752
4.1	0.876708	0.111379722222	0.534455401235	-0.0349065850399	0.0387850944888	0.813409620528
4.15	0.883568	0.138629166667	0.361843827161	-0.0349065850399	0.126051557088	0.495587318468
4.2	0.8912855	0.150824722222	0.12518441358	-0.0174532925199	0.126051557088	-0.452492769036
4.25	0.8991745	0.150348333333	-0.104382098765	-0.0174532925199	0.0387850944888	-0.630257785442
4.3	0.9067205	0.138915	-0.303036265432	-0.0174532925199	0.0193925472444	0
4.35	0.913409	0.118620833333	-0.461620833333	-0.0174532925199	0.0387850944888	0.630257785442
4.4	0.918897	0.0907044444444	-0.566320524691	-0.0174532925199	0.126051557088	0.447105950357
4.45	0.92267	0.0590722222222	-0.610836419753	0	0.126051557088	-0.53329504922
4.5	0.924728	0.0276305555556	-0.62041712963	0	0.0387850944888	-0.996561455614
4.55	0.925071	0.000762222222222	-0.680918518519	0	0	-0.948080087503
4.6	0.9255855	-0.0393497222222	-0.735438580247	0	-0.0387850944888	-0.996561455614
4.65	0.9214695	-0.0831775	-0.593262962963	0	-0.126051557088	-0.53329504922
4.7	0.916153	-0.105377222222	-0.333948611111	-0.0174532925199	-0.126051557088	0.447105950357
4.75	0.909979	-0.110236388889	-0.178751697531	-0.0174532925199	-0.0387850944888	0.630257785442
4.8	0.905177	-0.112999444444	-0.190449691358	-0.0174532925199	-0.0193925472444	0
4.85	0.900032	-0.135866111111	-0.0929487654321	-0.0174532925199	-0.0387850944888	-0.630257785442
4.9	0.8902565	-0.134436944444	0.213316358025	-0.0174532925199	-0.126051557088	-0.452492769036
4.95	0.885283	-0.108140277778	0.423033333333	-0.0349065850399	-0.126051557088	0.495587318468
5	0.8799665	-0.0860358333333	0.521487037037	-0.0349065850399	-0.0387850944888	0.813409620528
5.05	0.876365	-0.0566902777778	0.604643364198	-0.0349065850399	-0.00969627362219	0.474040043752
5.1	0.8741355	-0.0246769444444	0.659798611111	-0.0349065850399	0	0.188538653765
5.15	0.8737925	0.0104805555556	0.686	-0.0349065850399	0	0.0754154615059
5.2	0.8751645	0.0458286111111	0.662127623457	-0.0349065850399	0	0.188538653765
5.25	0.878423	0.0793663888889	0.574313271605	-0.0349065850399	0.00969627362219	0.474040043752
5.3	0.8833965	0.106044166667	0.418957561728	-0.0349065850399	0.0387850944888	0.813409620528
5.35	0.889399	0.123003611111	0.220038734568	-0.0349065850399	0.126051557088	0.490200499789
5.4	0.8960875	0.129577777778	-0.00418163580247	-0.0174532925199	0.126051557088	-0.48481368111
5.45	0.903119	0.120621666667	-0.191137808642	-0.0174532925199	0.0387850944888	-0.775701889775
5.5	0.908264	0.10633	-0.301765895062	-0.0174532925199	0.00969627362219	-0.290888208666
5.55	0.9135805	0.0924194444444	-0.430285030864	-0.0174532925199	0.00969627362219	0.290888208666
5.6	0.9183825	0.0629786111111	-0.546259259259	-0.0174532925199	0.0387850944888	0.770315071096
5.65	0.9197545	0.0334425	-0.583576388889	-0.0174532925199	0.126051557088	0.447105950357
5.7	0.9214695	0.00676472222222	-0.634285339506	0	0.126051557088	-0.673352334874
5.75	0.921298	-0.0331566666667	-0.611630401235	0	0.0290888208666	-1.28744966428
5.8	0.917525	-0.0614541666667	-0.462308950617	0	-0.0290888208666	-1.28744966428
5.85	0.914438	-0.0766033333333	-0.349616512346	0	-0.126051557088	-0.673352334874
5.9	0.9101505	-0.0938486111111	-0.277046604938	-0.0174532925199	-0.126051557088	0.447105950357
5.95	0.904834	-0.105853611111	-0.182086419753	-0.0174532925199	-0.0387850944888	0.770315071096
6	0.899346	-0.112904166667	-0.0657945987654	-0.0174532925199	-0.00969627362219	0.290888208666
6.05	0.8933435	-0.114238055556	0.0960188271605	-0.0174532925199	-0.00969627362219	-0.290888208666
6.1	0.8875125	-0.104805555556	0.28810941358	-0.0174532925199	-0.0387850944888	-0.775701889775
6.15	0.882539	-0.0867027777778	0.488880864198	-0.0174532925199	-0.126051557088	-0.48481368111
6.2	0.8779085	-0.0513547222222	0.59855617284	-0.0349065850399	-0.126051557088	0.490200499789
6.25	0.877737	-0.0197225	0.572884104938	-0.0349065850399	-0.0387850944888	0.818796439207
6.3	0.8765365	0.00247722222222	0.580294598765	-0.0349065850399	-0.00969627362219	0.511747774505
6.35	0.877051	0.0384922222222	0.569972839506	-0.0349065850399	0	0.366303670172
6.4	0.880824	0.0663133333333	0.440871450617	-0.0349065850399	0.00969627362219	0.511747774505
6.45	0.8844255	0.0808908333333	0.324103240741	-0.0349065850399	0.0387850944888	0.818796439207
6.5	0.8885415	0.0982313888889	0.203841512346	-0.0349065850399	0.126051557088	0.490200499789
6.55	0.8947155	0.104996111111	0.0263072530864	-0.0174532925199	0.126051557088	-0.490200499789
6.6	0.899689	0.0990888888889	-0.116715277778	-0.0174532925199	0.0387850944888	-0.813409620528
6.65	0.9046625	0.0901327777778	-0.200612654321	-0.0174532925199	0.00969627362219	-0.474040043752
6.7	0.9087785	0.0782230555556	-0.259737808642	-0.0174532925199	0	-0.183151835086
6.75	0.9125515	0.0645983333333	-0.32029212963	-0.0174532925199	0	-0.037707730753
6.8	0.915467	0.0461144444444	-0.379417283951	-0.0174532925199	0	-0.00538681867899
6.85	0.917182	0.0262013888889	-0.427956018519	-0.0174532925199	0	0
6.9	0.918211	0.00333472222222	-0.46776095679	-0.0174532925199	0	0
6.95	0.9176965	-0.0225808333333	-0.462361882716	-0.0174532925199	0	0
7	0.91581	-0.0455427777778	-0.403818981481	-0.0174532925199	0	0
7.05	0.9128945	-0.0633597222222	-0.334266203704	-0.0174532925199	0	0
7.1	0.909293	-0.0775561111111	-0.281651697531	-0.0174532925199	0	-0.00538681867899
7.15	0.905177	-0.0909902777778	-0.225014351852	-0.0174532925199	0	-0.037707730753
7.2	0.900375	-0.104996111111	-0.0761692901235	-0.0174532925199	0	-0.183151835086
7.25	0.893858	-0.102518888889	0.1372	-0.0174532925199	-0.00969627362219	-0.474040043752
7.3	0.889399	-0.0861311111111	0.260796450617	-0.0174532925199	-0.0387850944888	-0.813409620528
7.35	0.8854545	-0.0709819444444	0.28985617284	-0.0174532925199	-0.126051557088	-0.490200499789
7.4	0.8827105	-0.0604061111111	0.359567746914	-0.0349065850399	-0.126051557088	0.495587318468
7.45	0.878766	-0.0391591666667	0.490521759259	-0.0349065850399	-0.0387850944888	0.851117351281
7.5	0.87808	-0.00485916666667	0.515558641975	-0.0349065850399	-0.00969627362219	0.657191878837
7.55	0.8792805	0.0144822222222	0.493644753086	-0.0349065850399	0.00969627362219	0.657191878837
7.6	0.879109	0.0404930555556	0.515611574074	-0.0349065850399	0.0387850944888	0.851117351281
7.65	0.882882	0.0715536111111	0.439865740741	-0.0349065850399	0.126051557088	0.495587318468
7.7	0.8871695	0.0878461111111	0.301501234568	-0.0174532925199	0.126051557088	-0.490200499789
7.75	0.8919715	0.0971833333333	0.213633950617	-0.0174532925199	0.0387850944888	-0.813409620528
7.8	0.896259	0.112618333333	0.060924845679	-0.0174532925199	0.00969627362219	-0.474040043752
7.85	0.904148	0.110141111111	-0.196960339506	-0.0174532925199	0	-0.183151835086
7.9	0.9084355	0.0863216666667	-0.340088734568	-0.0174532925199	0	-0.037707730753
7.95	0.9122085	0.0691716666667	-0.359144290123	-0.0174532925199	0	-0.00538681867899
8	0.915124	0.0540225	-0.418957561728	-0.0174532925199	0	0
8.05	0.918211	0.0295361111111	-0.509947839506	-0.0174532925199	0	0
8.1	0.9183825	-0.00133388888889	-0.531702932099	-0.0174532925199	0	0
8.15	0.917525	-0.0242958333333	-0.529744444444	-0.0174532925199	0	0
8.2	0.9163245	-0.0529744444444	-0.528315277778	-0.0174532925199	0	0
8.25	0.91238	-0.0824152777778	-0.422768672839	-0.0174532925199	0	-0.00538681867899
8.3	0.9074065	-0.0988983333333	-0.242852469136	-0.0174532925199	0	-0.037707730753
8.35	0.90209	-0.105663055556	-0.0687587962963	-0.0174532925199	0	-0.183151835086
8.4	0.896602	-0.104900833333	0.0887671296296	-0.0174532925199	-0.00969627362219	-0.474040043752
8.45	0.8912855	-0.0964211111111	0.231048611111	-0.0174532925199	-0.0387850944888	-0.813409620528
8.5	0.886655	-0.0807002777778	0.347128703704	-0.0174532925199	-0.126051557088	-0.490200499789
8.55	0.8830535	-0.0604061111111	0.432878703704	-0.0349065850399	-0.126051557088	0.490200499789
8.6	0.880481	-0.0365866666667	0.495497376543	-0.0349065850399	-0.0387850944888	0.818796439207
8.65	0.8792805	-0.00990888888889	0.531385339506	-0.0349065850399	-0.00969627362219	0.511747774504
8.7	0.879452	0.0177216666667	0.533873148148	-0.0349065850399	0	0.366303670172
8.75	0.8809955	0.0457333333333	0.483693518518	-0.0349065850399	0.00969627362219	0.511747774504
8.8	0.884254	0.0686	0.377617592593	-0.0349065850399	0.0387850944888	0.818796439207
8.85	0.8881985	0.0842255555556	0.240999845679	-0.0349065850399	0.126051557088	0.490200499789
8.9	0.892829	0.0937533333333	0.0725169753086	-0.0174532925199	0.126051557088	-0.490200499789
8.95	0.8978025	0.0952777777778	-0.148845061728	-0.0174532925199	0.0387850944888	-0.813409620528
9	0.903462	0.0765080555556	-0.306370987654	-0.0174532925199	0.00969627362219	-0.474040043752
9.05	0.9056915	0.0530697222222	-0.252697839506	-0.0174532925199	0	-0.183151835086
9.1	0.907578	0.0493538888889	-0.158266975309	-0.0174532925199	0	-0.037707730753
9.15	0.910665	0.0458286111111	-0.215010185185	-0.0174532925199	0	-0.00538681867899
9.2	0.912723	0.0316322222222	-0.350886882716	-0.0174532925199	0	0
9.25	0.914095	0.0101947222222	-0.468025617284	-0.0174532925199	0	0
9.3	0.914438	-0.0223902777778	-0.4416125	-0.0174532925199	0	0
9.35	0.9111795	-0.0425891666667	-0.261378703704	-0.0174532925199	0	0
9.4	0.90895	-0.0416363888889	-0.189708641975	-0.0174532925199	0	0
9.45	0.907921	-0.0542130555556	-0.235177314815	-0.0174532925199	0	0
9.5	0.9039765	-0.0724111111111	-0.162766203704	-0.0174532925199	0	0
9.55	0.8998605	-0.0766033333333	0.0139211419753	-0.0174532925199	0	-0.00538681867899
9.6	0.895573	-0.0666944444444	0.130530555556	-0.0174532925199	0	-0.037707730753
9.65	0.893515	-0.0588816666667	0.162872067901	-0.0174532925199	0	-0.183151835086
9.7	0.8899135	-0.0540225	0.234700925926	-0.0174532925199	-0.00969627362219	-0.474040043752
9.75	0.8871695	-0.0339188888889	0.27353191358	-0.0174532925199	-0.0387850944888	-0.814486984264
9.8	0.886998	-0.0213422222222	0.224024521605	-0.0174532925199	-0.126051557088	-0.496126000335
9.85	0.8854545	-0.0148633333333	0.223209367284	-0.0349065850399	-0.126051557088	0.472423998148
9.9	0.88494	-0.0005145	0.244435138889	-0.0349065850399	-0.0407243492132	0.793478391416
9.95	0.8854545	0.0123384722222	0.226845802469	-0.0349065850399	-0.0145444104333	0.588779281614
10	0.8868265	0.0215327777778	0.205874104938	-0.0349065850399	0	0.421249220697
