Vernier Format 2
L6_500g_oscillation.cmbl 10/17/2024 13:17:20 .
Latest
Time	Position	Velocity	Acceleration
t	x	v	acc
s	m	m/s	m/s²

0.033333	1.072561	0.5851066844	-0.75556788906
0.066666	1.092455	0.565241069077	-0.999126579654
0.099999	1.11132	0.529511545115	-1.36681087775
0.133332	1.1282985	0.477346440131	-1.82210484469
0.166665	1.143562	0.406744900782	-2.27706533275
0.199998	1.1557385	0.323423650903	-2.6697367278
0.233331	1.1653425	0.228954789548	-3.02810743685
0.266664	1.1715165	0.11976536432	-3.28965016767
0.299997	1.173746	-0.00128626286263	-3.23796093945
0.33333	1.1704875	-0.0993280766141	-3.04775887154
0.366663	1.1674005	-0.200371170378	-2.92079869346
0.399996	1.157282	-0.302271772718	-2.58624790526
0.433329	1.145963	-0.370443704437	-2.28695059989
0.466662	1.133272	-0.451192428591	-2.03029095284
0.499995	1.1156075	-0.518506851735	-1.43229184014
0.533328	1.0974285	-0.548948406151	-0.753424096184
0.566661	1.078735	-0.564097724311	-0.173647222927
0.599994	1.0593555	-0.560238935723	0.380642335031
0.633327	1.0408335	-0.537086204195	0.88252806714
0.66666	1.0233405	-0.502214188809	1.40227873988
0.699993	1.006705	-0.44504695047	1.94751672792
0.733326	0.9931565	-0.36930035967	2.39556943893
0.766659	0.9818375	-0.282549075491	2.74274478518
0.799992	0.9739485	-0.183078080781	2.97177332406
0.833325	0.969661	-0.0823208232082	3.12207702456
0.866658	0.968289	0.0248677486775	3.24629791174
0.899991	0.9712045	0.136486781534	3.23950923431
0.933324	0.977207	0.248534568679	2.96843853514
0.966657	0.9880115	0.348863071964	2.32744446532
0.99999	1.0024175	0.397741060744	1.84449557028
1.033323	1.014251	0.449763247632	1.89773309336
1.066656	1.0308865	0.535085350854	1.65298340673
1.099989	1.051295	0.582105404387	0.78474729209
1.133322	1.070846	0.589965899659	-0.219738769753
1.166655	1.091426	0.564669396694	-1.12013177752
1.199988	1.1097765	0.50078500785	-1.5587756198
1.233321	1.124354	0.445904459045	-1.57259117389
1.266654	1.1389315	0.402171521715	-1.74040251621
1.299987	1.1516225	0.343860938609	-2.28528320544
1.33332	1.1629415	0.252822111554	-2.93223225546
1.366653	1.1691155	0.138487634876	-3.29262765778
1.399986	1.172031	0.0248677486775	-3.34253039194
1.433319	1.171002	-0.0924680080134	-3.10349748631
1.466652	1.165171	-0.188366050327	-2.67199962028
1.499985	1.1577965	-0.264970149701	-2.37341691255
1.533318	1.147678	-0.341860085268	-2.19262371337
1.566651	1.134987	-0.415177068437	-1.9102385518
1.599984	1.119552	-0.473630569639	-1.50125051097
1.633317	1.1029165	-0.51593432601	-1.03592835735
1.66665	1.0847375	-0.541802501358	-0.529635939888
1.699983	1.0669015	-0.559810181435	0.211163598251
1.733316	1.04615	-0.537514958483	1.14240340351
1.766649	1.0291715	-0.464197975313	1.53912418511
1.799982	1.016309	-0.414033723671	1.40358883553
1.833315	1.0027605	-0.388880138801	1.71384330447
1.866648	0.9886975	-0.318993189932	2.51490724234
1.899981	0.9801225	-0.208946256129	3.02143785901
1.933314	0.975149	-0.102043520435	3.08384605161
1.966647	0.9736055	-0.00171501715017	3.02072326139
1.99998	0.9749775	0.0976130594639	2.9672475391
2.033313	0.9801225	0.196798217982	2.87577904307
2.066646	0.988183	0.291695833625	2.67688270405
2.099979	0.999502	0.383878005447	2.21370434331
2.133312	1.0147655	0.445332786661	1.56830358814
2.166645	1.0298575	0.483634836348	1.03557105854
2.199978	1.047179	0.510789274559	0.613482061247
2.233311	1.064329	0.523651903186	0.22926673809
2.266644	1.0823365	0.525938592719	-0.177458410262
2.299977	1.0994865	0.518078097448	-0.754495992622
2.33331	1.117837	0.480776474431	-1.45623086058
2.366643	1.132586	0.410889525562	-1.90642736447
2.399976	1.144591	0.350149334827	-2.24336014476
2.433309	1.156596	0.268257265906	-2.70963509521
2.466642	1.1632845	0.163355383554	-2.98546977854
2.499975	1.167229	0.0620264535979	-3.03561071191
2.533308	1.167572	-0.0430183468501	-2.92913566575
2.566641	1.1639705	-0.136058027247	-2.71809116711
2.599974	1.158311	-0.222237639043	-2.53836986437
2.633307	1.1492215	-0.307130987977	-2.29624036902
2.66664	1.137388	-0.377875445421	-1.96907375628
2.699973	1.1238395	-0.439758980923	-1.57533046479
2.733306	1.1077185	-0.486636116361	-1.06999084415
2.766639	1.09074	-0.512075537422	-0.530350537513
2.799972	1.0730755	-0.518935606023	-0.0458533476179
2.833305	1.056097	-0.517077670777	0.493429660211
2.866638	1.037918	-0.491638249716	1.1619357386
2.899971	1.0223115	-0.434756847568	1.69431096938
2.933304	1.0089345	-0.372158721587	2.03862792513
2.966637	0.9972725	-0.298984656513	2.34554760516
2.99997	0.9886975	-0.215377570442	2.59256018428
3.033303	0.9825235	-0.12148038147	2.69188925418
3.066636	0.980637	-0.0278690286903	2.58053112425
3.099969	0.9814945	0.0458767087671	2.57362334721
3.133302	0.983038	0.135915109151	2.74072009191
3.166635	0.9900695	0.237529875299	2.65330098242
3.199968	0.999502	0.321851551849	2.28599780306
3.233301	1.01185	0.393310599773	1.77720429391
3.266634	1.0264275	0.440330653307	1.24625825837
3.299967	1.0415195	0.473773487735	0.782603499214
3.3333	1.0583265	0.493496184962	0.297391711693
3.366633	1.074962	0.493924939249	-0.190082968307
3.399966	1.0915975	0.480633556336	-0.673746460973
3.433299	1.107547	0.447905312386	-1.13382823201
3.466632	1.12161	0.405601556016	-1.60462896742
3.499965	1.1351585	0.34314634813	-2.11354157618
3.533298	1.1451055	0.26053968873	-2.48477504247
3.566631	1.1526515	0.171501715017	-2.6639008472
3.599964	1.156596	0.0791766250996	-2.70022622648
3.633297	1.1577965	-0.00971843051764	-2.66008965986
3.66663	1.1560815	-0.100185585189	-2.53991815922
3.699963	1.1509365	-0.183935589356	-2.28766519752
3.733296	1.143219	-0.250964176308	-2.07007022064
3.766629	1.134301	-0.317992763261	-1.93108098254
3.799962	1.1221245	-0.384163841638	-1.65750919168
3.833295	1.108233	-0.435328519952	-1.18111077488
3.866628	1.092455	-0.464483811505	-0.632418898315
3.899961	1.0768485	-0.47634601346	-0.105164950511
3.933294	1.060213	-0.470343453435	0.388383809304
3.966627	1.045121	-0.449191575249	0.847631883108
3.99996	1.030029	-0.416034577012	1.35094681047
4.033293	1.016652	-0.359010256769	1.82329584073
4.066626	1.005676	-0.288122881229	2.11068318567
4.099959	0.997444	-0.213519635196	2.25824759528
4.133292	0.991613	-0.140631406314	2.45500014142
4.166625	0.987497	-0.0520221868885	2.68128938941
4.199958	0.98784	0.0454479544795	2.69355664864
4.233291	0.990927	0.132770911042	2.52896099563
4.266624	0.996758	0.21580632473	2.2787327272
4.299957	1.005676	0.286264945983	1.96824005905
4.33329	1.0161375	0.346004710047	1.66775175765
4.366623	1.0288285	0.399313159798	1.30271147077
4.399956	1.0432345	0.435900192335	0.846440887066
4.433289	1.0583265	0.456337480041	0.361824597567
4.466622	1.0741045	0.459767514342	-0.124578185996
4.499955	1.089368	0.447476558099	-0.59430702497
4.533288	1.1042885	0.420893792271	-1.0741593303
4.566621	1.1180085	0.374588329217	-1.51220767456
4.599954	1.129499	0.317849845165	-1.88975341988
4.633287	1.139446	0.249106241062	-2.25658020082
4.66662	1.1464775	0.167642926429	-2.57540984127
4.699953	1.1512795	0.0688865221986	-2.63114845604
4.733286	1.1505935	-0.0180076800768	-2.39044815595
4.766619	1.149393	-0.086322529892	-2.21954022392
4.799952	1.145277	-0.162354956883	-2.13247841324
4.833285	1.138417	-0.232527741944	-1.96573896736
4.866618	1.1293275	-0.292410424104	-1.80590729852
4.899951	1.1190375	-0.351006843402	-1.65488900039
4.933284	1.106175	-0.41231870652	-1.24637735798
4.966617	1.0902255	-0.437186455198	-0.720790804633
4.99995	1.07702	-0.455051217179	-0.285600850877
5.033283	1.05987	-0.464626729601	0.365397585693
5.066616	1.0446065	-0.431898485652	1.03009247675
5.099949	1.0308865	-0.388022630226	1.46742622338
5.133282	1.018367	-0.32971204712	1.74373730513
5.166615	1.008763	-0.266542248756	1.85723922793
5.199948	1.000874	-0.208088747554	2.03267294492
5.233281	0.9945285	-0.136915535822	2.35305088023
5.266614	0.99127	-0.0511646783134	2.64079552398
5.299947	0.990584	0.0488779887799	2.63769893427
5.33328	0.995043	0.135343436768	2.31648730174
5.366613	1.0003595	0.199942416091	2.04279641128
5.399946	1.008077	0.267971429714	1.85426173783
5.433279	1.0185385	0.325853258533	1.61022664882
5.466612	1.030029	0.375588755888	1.33129537577
5.499945	1.0435775	0.420036283696	0.88479095962
5.533278	1.058841	0.438758554252	0.323117226201
5.566611	1.0734185	0.43747229139	-0.140180234146
5.599944	1.0881675	0.426324679913	-0.523800059282
5.633277	1.102059	0.404458211249	-0.943864363304
5.66661	1.1156075	0.366013243466	-1.41859538565
5.699943	1.127098	0.306845151785	-1.80090511514
5.733276	1.1361875	0.240816991503	-2.02874265798
5.766609	1.143219	0.170215452155	-2.19036082089
5.799942	1.147678	0.094754697547	-2.32327597918
5.833275	1.149736	0.0134343010097	-2.39020995674
5.866608	1.1485355	-0.0676002593359	-2.35698116717
5.899941	1.1451055	-0.144776031094	-2.26408347589
5.933274	1.1389315	-0.221237212372	-2.074476906
5.966607	1.1300135	-0.286264945983	-1.78399297135
5.99994	1.119552	-0.340287986213	-1.48374286915
6.033273	1.1070325	-0.38444967783	-1.18694665548
6.066606	1.0936555	-0.417892512258	-0.891817836268
6.099939	1.079421	-0.451621182878	-0.371948063924
6.133272	1.0624425	-0.451049510495	0.367660478173
6.166605	1.0483795	-0.419607529409	0.90718168521
6.199938	1.034488	-0.38273466068	1.21838895099
6.233271	1.0226545	-0.336857951913	1.45825555385
6.266604	1.0120215	-0.288408717421	1.77005831766
6.299937	1.002932	-0.222237639043	2.1595140234
6.33327	0.996758	-0.142203505368	2.45678663549
6.366603	0.992985	-0.048735070684	2.47250778324
6.399936	0.9941855	0.0284407010737	2.29362017773
6.433269	0.995043	0.0991851585183	2.20524827141
6.466602	1.0003595	0.178504701714	2.03707963028
6.499935	1.007734	0.236672366724	1.82460593638
6.533268	1.015966	0.297269639363	1.6635832715
6.566601	1.027628	0.351864351977	1.38500929727
6.599934	1.039976	0.391023910239	1.04998211065
6.633267	1.0538675	0.421179628463	0.686013720206
6.6666	1.068102	0.443189015223	0.146135214356
6.699933	1.0843945	0.43504268376	-0.483067994645
6.733266	1.097943	0.401456931236	-0.867640616614
6.766599	1.1108055	0.371158294916	-1.09845564956
6.799932	1.122639	0.337000870009	-1.53257370688
6.833265	1.134301	0.273545235452	-2.06864102539
6.866598	1.141504	0.18965231319	-2.34733409923
6.899931	1.146649	0.109904015707	-2.39461664209
6.933264	1.1488785	0.0290123734571	-2.36579453788
6.966597	1.1485355	-0.0488779887799	-2.29945605834
6.99993	1.1454485	-0.123481234812	-2.24026355505
7.033263	1.1403035	-0.196941136078	-2.1623724139
7.066596	1.1327575	-0.276689433561	-1.82365313955
7.099929	1.120924	-0.32871162045	-1.2356583936
7.133262	1.109605	-0.347433891006	-0.939338578344
7.166595	1.0984575	-0.379447544475	-0.925403924653
7.199928	1.084909	-0.422037137038	-0.581086968904
7.233261	1.069131	-0.431469731364	0.120647899057
7.266594	1.055068	-0.407459491262	0.686490118623
7.299927	1.042034	-0.377732527325	1.03092617398
7.33326	1.029686	-0.339001723351	1.33558296153
7.366593	1.019053	-0.288408717421	1.61153674446
7.399926	1.0103065	-0.230241052411	1.83520580115
7.433259	1.0034465	-0.164355810225	1.99444197197
7.466592	0.999159	-0.0926109261093	2.03791332751
7.499925	0.997787	-0.0311561448948	2.14105358475
7.533258	0.9965865	0.0438758554252	2.37091582086
7.566591	1.0000165	0.135915109151	2.34399931031
7.599924	1.006362	0.209803764704	2.03112465007
7.633257	1.0144225	0.26982936496	1.70371983812
7.66659	1.0243695	0.323852405191	1.3489221172
7.699923	1.036546	0.361011110111	0.962801200372
7.733256	1.0487225	0.386593449268	0.601810300035
7.766589	1.0624425	0.403600702674	0.182341494034
7.799922	1.076334	0.399170241702	-0.240938499301
7.833255	1.089368	0.38273466068	-0.553813159541
7.866588	1.101716	0.364298226316	-0.923260131777
7.899921	1.1142355	0.326567849012	-1.42014368051
7.933254	1.1241825	0.266971003043	-1.83711139482
7.966587	1.132243	0.197798644653	-2.06471073845
7.99992	1.137388	0.125767924346	-2.15498823844
8.033253	1.1406465	0.0527367773678	-2.16356340994
8.066586	1.1409895	-0.0210089600896	-2.0830520775
8.099919	1.139103	-0.0898954822882	-1.9073801613
8.133252	1.1344725	-0.145204785381	-1.80173881237
8.166585	1.1296705	-0.205230385637	-1.80292980842
8.199918	1.1210955	-0.271401464015	-1.63428476887
8.233251	1.110977	-0.320136534699	-1.28353643449
8.266584	1.0994865	-0.358009830098	-0.874786592867
8.299917	1.086624	-0.378447117805	-0.453888591615
8.33325	1.073933	-0.386307613076	-0.0772956431273
8.366583	1.0607275	-0.385450104501	0.353487625273
8.399916	1.0476935	-0.365441571082	0.849061078359
8.433249	1.03586	-0.327568275683	1.2923498052
8.466582	1.0253985	-0.274259825932	1.57795065608
8.499915	1.0175095	-0.216663833305	1.69145257888
8.533248	1.011164	-0.162497874979	1.8110285815
8.566581	1.006362	-0.0988993223266	1.99074988424
8.599914	1.004304	-0.0275831924986	2.1000833209
8.633247	1.0044755	0.0457337906712	2.06983202143
8.66658	1.0075625	0.113191131911	1.93989435325
8.699913	1.012193	0.174645913126	1.79792762504
8.733246	1.0192245	0.233671086711	1.62237480844
8.766579	1.027971	0.28497868312	1.37345663566
8.799912	1.0384325	0.327854111874	1.03819124983
8.833245	1.050266	0.355580222469	0.648378245278
8.866578	1.0624425	0.370872458725	0.253443957743
8.899911	1.075305	0.37344498445	-0.166382147071
8.933244	1.0878245	0.359153174865	-0.56512762194
8.966577	1.0994865	0.334428344283	-0.920282641672
8.99991	1.1104625	0.297126721267	-1.24554366075
9.033243	1.119552	0.249820831542	-1.51768625635
9.066576	1.1272695	0.195654873215	-1.76862912241
9.099909	1.132929	0.130770057701	-1.98038821868
9.133242	1.136016	0.0621693716937	-2.1311683176
9.166575	1.1372165	-0.0115763657637	-2.21894472589
9.199908	1.135673	-0.093754270876	-2.05887485785
9.233241	1.1303565	-0.158210332103	-1.64893402018
9.266574	1.1241825	-0.196798217982	-1.40585172801
9.299907	1.1176655	-0.243246599133	-1.38119810994
9.33324	1.108233	-0.294125441254	-1.22875061656
9.366573	1.0976	-0.33214165475	-0.878597780201
9.399906	1.085595	-0.353436451031	-0.47556471958
9.433239	1.0737615	-0.362726127261	-0.0903965995896
9.466572	1.0610705	-0.358867338673	0.276191982145
9.499905	1.04958	-0.344432610993	0.645162555964
9.533238	1.0377465	-0.316849418494	1.05188770432
9.566571	1.0281425	-0.275117334507	1.47195200834
9.599904	1.019053	-0.220236785701	1.88534673452
9.633237	1.012536	-0.140202652027	2.01802369361
9.66657	1.0103065	-0.0747461641283	1.84056528334
9.699903	1.008077	-0.0225810591439	1.76886732161
9.733236	1.00842	0.0377303773038	1.83341930709
9.766569	1.010478	0.101043093764	1.87355587371
9.799902	1.0151085	0.166356663567	1.80078601554
9.833235	1.021797	0.223952656193	1.62463770092
9.866568	1.0302005	0.276260679273	1.3659533606
9.899901	1.0404905	0.316563582302	1.02651948862
9.933234	1.051295	0.351578515785	0.511770999258
9.966567	1.0651865	0.351006843402	-0.00357298812605
9.9999	1.074962	0.339144641446	-0.206161414874
10.033233	1.0871385	0.339430477638	-0.444598822488
10.066566	1.0984575	0.31527731944	-0.813926695119
10.099899	1.1084045	0.282263239299	-1.11858348267
10.133232	1.117494	0.239101974353	-1.37917341666
10.166565	1.1245255	0.188937722711	-1.58593032956
10.199898	1.130185	0.133914255809	-1.79221084404
10.233231	1.1337865	0.068457767911	-1.95204251288
10.266564	1.1348155	0.000285836191695	-1.99694306366
10.299897	1.1337865	-0.0676002593359	-1.93655956433
10.33323	1.130185	-0.131055893892	-1.79304454127
10.366563	1.1248685	-0.18793729604	-1.61653892784
10.399896	1.117494	-0.238673220066	-1.44122431045
10.433229	1.1087475	-0.28326366597	-1.26055021088
10.466562	1.098629	-0.323995323287	-1.01568142464
10.499895	1.0871385	-0.360296519632	-0.526539350179
10.533228	1.073247	-0.358724420578	-0.0298940006548
10.566561	1.0633	-0.353293532935	0.252848459722
10.599894	1.049923	-0.347862645293	0.665766787491
10.633227	1.038947	-0.310561022277	1.10643532304
10.66656	1.0291715	-0.267542675427	1.38262730519
10.699893	1.021111	-0.219522195222	1.64845762177
10.733226	1.013908	-0.155209052091	1.81019488427
10.766559	1.010821	-0.0914675813425	1.77160661251
10.799892	1.0082485	-0.0380162134955	1.74314180711
10.833225	1.008077	0.0205802058021	1.81126678071
10.866558	1.009449	0.0833212498792	1.86498070221
10.899891	1.013565	0.148206065394	1.82841712372
10.933224	1.0195675	0.207231238979	1.70634002941
10.966557	1.0274565	0.262111787785	1.52900071875
10.99989	1.036889	0.316277746111	1.13835401697
11.033223	1.0494085	0.344146774801	0.580610570487
11.066556	1.060556	0.348863071964	0.175195517782
11.099889	1.072561	0.351006843402	-0.0890865039434
11.133222	1.084223	0.344003856705	-0.369208773027
11.166555	1.0957135	0.327425357587	-0.682678931288
11.199888	1.106175	0.303272199389	-1.10595892462
11.233221	1.1169795	0.250106667733	-1.42740875637
11.266554	1.122639	0.19894198942	-1.51399416862
11.299887	1.129842	0.154923215899	-1.73563853204
11.33322	1.1337865	0.0876087927546	-2.04827499307
11.366553	1.1358445	0.0142918095848	-2.2220413156
11.399886	1.1351585	-0.0700298669653	-2.10151251615
11.433219	1.130528	-0.135200518672	-1.70181424445
11.466552	1.125383	-0.178361783618	-1.41502239753
11.499885	1.118866	-0.223523901906	-1.28544202816
11.533218	1.1104625	-0.266113494468	-1.1195362795
11.566551	1.1008585	-0.300556755568	-0.882647166744
11.599884	1.0902255	-0.326710767108	-0.575965685923
11.633217	1.078735	-0.340287986213	-0.216880379253
11.66655	1.0672445	-0.341860085268	0.166501246675
11.699883	1.0555825	-0.329854965216	0.559529940543
11.733216	1.044778	-0.302128854622	0.88026517466
11.766549	1.0353455	-0.268400184002	1.12013177752
11.799882	1.0267705	-0.22852603526	1.36916904991
11.833215	1.019739	-0.177075520755	1.59676839354
11.866548	1.0147655	-0.118479101458	1.70824562307
11.899881	1.01185	-0.0597397640643	1.70729282624
11.933214	1.010821	-0.00242960762941	1.64798122335
11.966547	1.0120215	0.0471629716297	1.67049104854
11.99988	1.0137365	0.103043947106	1.83996978532
12.033213	1.018367	0.173788404551	1.87105478202
12.066546	1.02557	0.236243612436	1.61784902349
12.099879	1.034145	0.2925533422	1.04950571223
12.133212	1.046493	0.307845578456	0.447576312593
12.166545	1.0552395	0.305273052731	0.296677114068
12.199878	1.0658725	0.323566568999	0.263091025683
12.233211	1.07702	0.334428344283	-0.0640755870609
12.266544	1.0888535	0.325138668053	-0.571678100171
12.299877	1.099315	0.293982523159	-1.03342726566
12.33321	1.1087475	0.250678340117	-1.32248200506
12.366543	1.116122	0.201943269433	-1.46432963367
12.399876	1.122296	0.151064427311	-1.52900071875
12.433209	1.1262405	0.0980418137515	-1.54972404988
12.466542	1.12847	0.0523080230802	-1.68573579788
12.499875	1.1303565	-0.0105759390927	-1.89940048782
12.533208	1.128127	-0.0826066593999	-1.88201194561
12.566541	1.124354	-0.142346423464	-1.67299214023
12.599874	1.1183515	-0.192796511298	-1.45575446217
12.633207	1.1114915	-0.239101974353	-1.22744052091
12.66654	1.1022305	-0.277975696424	-0.909206378481
12.699873	1.092455	-0.300556755568	-0.560601836981
12.733206	1.0819935	-0.314276892769	-0.232720626611
12.766539	1.071189	-0.315848991823	0.087657308693
12.799872	1.0607275	-0.308560168935	0.403390359434
12.833205	1.050266	-0.288980389804	0.713883027589
12.866538	1.0411765	-0.258967589676	0.969232578999
12.899871	1.0329445	-0.224238492385	1.2129103692
12.933204	1.025913	-0.178790537905	1.45777915544
12.966537	1.020768	-0.124767497675	1.62439950172
12.99987	1.0175095	-0.0673144231442	1.69002338363
13.033203	1.016309	-0.00986134861349	1.67894712044
13.066536	1.016995	0.0438758554252	1.66775175765
13.099869	1.019053	0.101614766148	1.6324982748
13.133202	1.023855	0.156066560666	1.49505733155
13.166535	1.029686	0.203086614199	1.2924689048
13.199868	1.037575	0.243103681037	1.04640912252
13.233201	1.04615	0.273259399261	0.773313730086
13.266534	1.0559255	0.296555048884	0.441621332382
