Vernier Format 2
Untitled.cmbl 10/31/2024 11:42:04 .
Latest
Time	Position	Velocity 1	Acceleration 1	Angle 2	Velocity 2	Acceleration 2
t	x	v 1	acc 1	Angle 2	v 2	acc 2
s	m	m/s	m/s²	rad	rad/s	rad/s²

0.05	0.8463525	-0.883987222222	1.8331762037	0	0.465421133865	3.50466423255
0.1	0.8000475	-0.811433194444	2.41009902778	0.0174532925199	0.625409648631	3.75138052805
0.15	0.759402	-0.6830845	3.26445486111	0.0523598775598	0.849393569304	3.64741492755
0.2	0.7283605	-0.489823055556	4.18672257716	0.10471975512	1.02780500395	2.82323166966
0.25	0.708981	-0.248389166667	4.83130850309	0.157079632679	1.16355283466	1.31276771207
0.3	0.702807	0.0116238888889	5.03688089506	0.226892802759	1.17324910829	-0.504206228354
0.35	0.7101815	0.270684166667	4.83809969136	0.279252680319	1.07628637206	-1.73994243332
0.4	0.73059	0.510593611111	4.25102978395	0.331612557879	0.998716183086	-2.95736345477
0.45	0.762832	0.710391111111	3.3056625	0.383972435439	0.814486984264	-4.67575861337
0.5	0.803992	0.851688055556	2.09431141975	0.418879020479	0.513902501976	-6.03862373915
0.55	0.85064	0.925909444444	0.725275617284	0.436332312999	0.174532925199	-6.66349470592
0.6	0.8995175	0.926290555556	-0.695739506173	0.436332312999	-0.174532925199	-6.66349470592
0.65	0.9461655	0.853688888889	-2.05275972222	0.418879020479	-0.513902501976	-6.03862373915
0.7	0.987497	0.714773888889	-3.25156589506	0.383972435439	-0.814486984264	-4.67575861337
0.75	1.0199105	0.5187875	-4.20122067901	0.331612557879	-0.998716183086	-2.95736345477
0.8	1.041005	0.281736388889	-4.82211419753	0.279252680319	-1.07628637206	-1.73994243332
0.85	1.0490655	0.0208658333333	-5.05141604938	0.226892802759	-1.17324910829	-0.490200499789
0.9	1.043063	-0.2401	-4.8663654321	0.157079632679	-1.16355283466	1.41673331258
0.95	1.024198	-0.4802	-4.30941388889	0.10471975512	-1.02780500395	3.29673303154
1	0.993671	-0.684285	-3.41793148148	0.0523598775598	-0.824183257886	4.96126000335
1.05	0.95354	-0.833013611111	-2.25374290123	0.0174532925199	-0.513902501976	6.14636011273
1.1	0.9077495	-0.915905277778	-0.92525308642	0	-0.174532925199	6.51805060158
1.15	0.859215	-0.9286725	0.4802	0	0.164836651577	6.22716239292
1.2	0.811881	-0.866837222222	1.85744027778	0.0174532925199	0.475117407487	5.37065822296
1.25	0.7698635	-0.737068888889	3.09070524691	0.0523598775598	0.698131700798	4.47644632224
1.3	0.7359065	-0.549371666667	4.10038503086	0.0872664625997	0.901753446864	3.78693353133
1.35	0.7129255	-0.313654444444	4.77511049383	0.13962634016	1.12476774017	2.2301429331
1.4	0.7036645	-0.05488	5.0377066358	0.209439510239	1.16355283466	-0.010773637358
1.45	0.7074375	0.205418888889	4.90738780864	0.261799387799	1.07628637206	-1.51908286748
1.5	0.724759	0.450473333333	4.40204506173	0.314159265359	0.998716183086	-2.73111707025
1.55	0.753914	0.659608055556	3.54967947531	0.366519142919	0.824183257886	-4.15862402018
1.6	0.7928445	0.815958888889	2.42788950617	0.401425727959	0.552687596465	-5.04206228354
1.65	0.837949	0.9098075	1.11602037037	0.418879020479	0.31028075591	-5.69925416238
1.7	0.886655	0.932007222222	-0.300019135802	0.436332312999	-0.00969627362219	-6.34028558518
1.75	0.9341605	0.879223333333	-1.69933209877	0.418879020479	-0.349065850399	-6.36183285989
1.8	0.9773785	0.756029166667	-2.95472268519	0.401425727959	-0.678739153553	-5.63999915691
1.85	1.0120215	0.574620277778	-3.97842947531	0.349065850399	-0.959931088597	-3.95392491038
1.9	1.0367175	0.346525277778	-4.70010570988	0.296705972839	-1.06659009844	-2.25169020782
1.95	1.047865	0.08918	-5.03818302469	0.244346095279	-1.17324910829	-0.684125972232
2	1.045807	-0.173500833333	-4.96953009259	0.174532925199	-1.16355283466	1.34131785107
2.05	1.030029	-0.423414444444	-4.50399228395	0.12217304764	-1.02780500395	3.10819437778
2.1	1.0020745	-0.638361111111	-3.67602839506	0.0698131700798	-0.833879531508	4.4872199596
2.15	0.964173	-0.802524722222	-2.55852592593	0.0349065850399	-0.552687596465	5.3329504922
2.2	0.91924	-0.901804166667	-1.2478212963	0.0174532925199	-0.300584482288	6.02246328312
2.25	0.87122	-0.930768611111	0.149797839506	0	0.0387850944888	6.67965516195
2.3	0.8232	-0.8857975	1.52529135802	0.0174532925199	0.436332312999	6.00630282708
2.35	0.779982	-0.772988611111	2.77517700617	0.0523598775598	0.678739153553	4.514154053
2.4	0.743624	-0.601393333333	3.83868873457	0.0872664625997	0.862968352375	3.33982758098
2.45	0.7177275	-0.378252777778	4.61859027778	0.13962634016	1.00841245671	2.25169020782
2.5	0.704522	-0.123670555556	5.01018194444	0.191986217719	1.07628637206	1.29822330164
2.55	0.7050365	0.139867777778	4.98085756173	0.244346095279	1.16355283466	-0.21547274716
2.6	0.7190995	0.389590833333	4.56375262346	0.314159265359	1.11507146655	-2.74727752629
2.65	0.7451675	0.609301388889	3.80793518519	0.366519142919	0.862968352375	-4.78349498695
2.7	0.7818685	0.782135277778	2.75463935185	0.401425727959	0.562383870087	-5.44068686578
2.75	0.8257725	0.894181944444	1.46960679012	0.418879020479	0.31028075591	-5.6938673437
2.8	0.8741355	0.934770277778	0.0484858024691	0.436332312999	0	-5.90395327218
2.85	0.922327	0.898755277778	-1.37094135802	0.418879020479	-0.31028075591	-5.55919687672
2.9	0.9667455	0.792806388889	-2.67174768519	0.401425727959	-0.552687596465	-5.18211956919
2.95	1.0041325	0.6234025	-3.76257237654	0.366519142919	-0.833879531508	-4.59495633318
3	1.031058	0.404454166667	-4.5491962963	0.314159265359	-1.03750127757	-3.39369576777
3.05	1.045807	0.154159444444	-4.97286481481	0.261799387799	-1.19264165553	-1.68068742785
3.1	1.0470075	-0.1089025	-4.99282021605	0.191986217719	-1.26051557088	1.00733509297
3.15	1.034488	-0.361483888889	-4.60641589506	0.12217304764	-1.06659009844	3.2320912074
3.2	1.0096205	-0.583481111111	-3.867325	0.0872664625997	-0.872664625997	4.27713403112
3.25	0.9742915	-0.759078055556	-2.8468470679	0.0349065850399	-0.649650332687	5.30062958013
3.3	0.9314165	-0.876174444444	-1.61898117284	0.0174532925199	-0.339369576777	6.07094465123
3.35	0.8840825	-0.926862222222	-0.250845216049	0	-0.00969627362219	6.20022829952
3.4	0.8357195	-0.902852222222	1.15190833333	0.0174532925199	0.31028075591	5.69925416238
3.45	0.790958	-0.807479166667	2.45784907407	0.0349065850399	0.552687596465	5.18211956919
3.5	0.752542	-0.649699166667	3.57805108025	0.0698131700798	0.833879531508	4.44951222885
3.55	0.7239015	-0.439516388889	4.433275	0.12217304764	1.02780500395	3.07048664703
3.6	0.7070945	-0.192461111111	4.93724151235	0.174532925199	1.16355283466	1.19587374674
3.65	0.7040075	0.0707913888889	5.03003148148	0.244346095279	1.16355283466	-0.969627362219
3.7	0.714469	0.327088611111	4.70926296296	0.296705972839	1.03750127757	-2.55335205384
3.75	0.737793	0.556422222222	4.01706990741	0.349065850399	0.872664625997	-3.44756395456
3.8	0.7719215	0.740594166667	3.02210524691	0.383972435439	0.688435427176	-4.18555811358
3.85	0.8141105	0.867313611111	1.80233796296	0.418879020479	0.475117407487	-5.2306009373
3.9	0.861273	0.927148055556	0.428591203704	0.436332312999	0.164836651577	-6.22716239292
3.95	0.9098075	0.91238	-0.994223611111	0.436332312999	-0.174532925199	-6.66349470592
4	0.9554265	0.824438611111	-2.33547006173	0.418879020479	-0.523598775598	-6.47495605215
4.05	0.9948715	0.670755555556	-3.47922685185	0.383972435439	-0.853272078753	-5.47839459654
4.1	1.024541	0.465050833333	-4.3388441358	0.331612557879	-1.12476774017	-3.4098562238
4.15	1.04272	0.224379166667	-4.87292901235	0.261799387799	-1.20233792915	-1.06659009844
4.2	1.047865	-0.0369677777778	-5.02960802469	0.209439510239	-1.20233792915	0.80263598317
4.25	1.038947	-0.295932777778	-4.76214212963	0.13962634016	-1.1344640138	2.74189070761
4.3	1.0171665	-0.528601111111	-4.10869537037	0.0872664625997	-0.901753446864	4.15323720151
4.35	0.98441	-0.718775555556	-3.14506651235	0.0523598775598	-0.688435427176	4.98280727807
4.4	0.9430785	-0.852640833333	-1.94170817901	0.0174532925199	-0.436332312999	6.15174693141
4.45	0.8964305	-0.918668333333	-0.593262962963	0	-0.0387850944888	6.53421105762
4.5	0.8484105	-0.913523333333	0.797792592593	0.0174532925199	0.290888208666	5.55381005804
4.55	0.802277	-0.837205833333	2.14046820988	0.0349065850399	0.513902501976	4.51954087168
4.6	0.7619745	-0.693241111111	3.32313009259	0.0698131700798	0.70782797442	3.99701945981
4.65	0.7307615	-0.494110555556	4.23906712963	0.10471975512	0.901753446864	3.60378169625
4.7	0.711039	-0.256011388889	4.81952052469	0.157079632679	1.12476774017	2.19243520235
4.75	0.7043505	0.0025725	5.02288564815	0.226892802759	1.16355283466	-0.021547274716
4.8	0.7112105	0.262395	4.82132021605	0.279252680319	1.07628637206	-1.55679059823
4.85	0.7314475	0.500875277778	4.22017037037	0.331612557879	0.998716183086	-2.91965572402
4.9	0.7630035	0.697338055556	3.29010046296	0.383972435439	0.814486984264	-4.66498497601
4.95	0.803306	0.8394925	2.1138433642	0.418879020479	0.513902501976	-6.0009160084
5	0.849611	0.915047777778	0.777149074074	0.436332312999	0.174532925199	-6.48572968951
5.05	0.897631	0.91924	-0.616500154321	0.436332312999	-0.164836651577	-6.22716239292
5.1	0.944279	0.852831388889	-1.98691219136	0.418879020479	-0.475117407487	-5.40836595371
5.15	0.985782	0.715536111111	-3.22118287037	0.383972435439	-0.698131700798	-4.65959815733
5.2	1.0181955	0.519454444444	-4.18057716049	0.349065850399	-0.911449720486	-4.25558675641
5.25	1.03929	0.283165555556	-4.78564398148	0.296705972839	-1.16355283466	-3.01123164156
5.3	1.0473505	0.0255344444444	-5.00176574074	0.226892802759	-1.28960439175	-0.328595939419
5.35	1.0418625	-0.232573055556	-4.82380802469	0.157079632679	-1.19264165553	2.33787930668
5.4	1.0233405	-0.471720277778	-4.27072052469	0.10471975512	-1.00841245671	4.07243492132
5.45	0.9931565	-0.672470555556	-3.39194182099	0.0523598775598	-0.736916795286	4.81581589902
5.5	0.9540545	-0.821199166667	-2.25448395062	0.0349065850399	-0.513902501976	5.20366684391
5.55	0.9084355	-0.904853055556	-0.943567592593	0	-0.261799387799	6.20022829952
5.6	0.8607585	-0.917810833333	0.431449537037	0	0.135747830711	6.56653196969
5.65	0.813939	-0.86093	1.78465864198	0.0174532925199	0.465421133865	5.66154643162
5.7	0.7719215	-0.735258611111	3.02390493827	0.0523598775598	0.698131700798	4.62189042658
5.75	0.7379645	-0.548990555556	4.02532731481	0.0872664625997	0.901753446864	3.81925444341
5.8	0.7153265	-0.319371111111	4.69650632716	0.13962634016	1.12476774017	2.24091657046
5.85	0.7050365	-0.0645983333333	4.99461990741	0.209439510239	1.16355283466	0.021547274716
5.9	0.708638	0.195795833333	4.8962191358	0.261799387799	1.07628637206	-1.36825194446
5.95	0.7252735	0.440088055556	4.41369012346	0.314159265359	1.00841245671	-2.40790794951
6	0.753914	0.651318888889	3.57503395062	0.366519142919	0.853272078753	-3.6684235204
6.05	0.7925015	0.809956388889	2.43424135802	0.401425727959	0.649650332687	-5.03667546486
6.1	0.837606	0.901899444444	1.10860987654	0.436332312999	0.339369576777	-6.16252056877
6.15	0.8854545	0.923336944444	-0.288374074074	0.436332312999	0	-6.54498469498
6.2	0.9327885	0.872458611111	-1.66561435185	0.436332312999	-0.339369576777	-6.34028558518
6.25	0.975492	0.751741666667	-2.91327685185	0.401425727959	-0.659346606309	-5.51071550861
6.3	1.0103065	0.571857222222	-3.92862037037	0.366519142919	-0.892057173242	-4.48183314092
6.35	1.034488	0.346334722222	-4.62859444444	0.314159265359	-1.1344640138	-2.89272163062
6.4	1.0459785	0.0944202777778	-4.96010817901	0.244346095279	-1.20233792915	-0.840343713923
6.45	1.0442635	-0.165402222222	-4.89743657407	0.191986217719	-1.20233792915	1.02349554901
6.5	1.0288285	-0.410647222222	-4.44926049383	0.12217304764	-1.12476774017	3.22131757004
6.55	1.001903	-0.623307222222	-3.6656007716	0.0698131700798	-0.862968352375	4.97203364071
6.6	0.9646875	-0.788995277778	-2.58779737654	0.0349065850399	-0.562383870087	5.51610232729
6.65	0.9204405	-0.8909425	-1.29350169753	0.0174532925199	-0.31028075591	5.88240599746
6.7	0.8727635	-0.921907777778	0.0960188271605	0	0.00969627362219	6.37260649725
6.75	0.8254295	-0.880938333333	1.47574691358	0.0174532925199	0.349065850399	6.3348987665
6.8	0.7818685	-0.769844444444	2.74003009259	0.0349065850399	0.678739153553	5.49455505257
6.85	0.746025	-0.597963333333	3.78411574074	0.0872664625997	0.950234814975	3.66303670172
6.9	0.7203	-0.380158333333	4.54130941358	0.13962634016	1.03750127757	1.91770744972
6.95	0.7067515	-0.130911666667	4.95973765432	0.191986217719	1.08598264569	1.03965600505
7	0.70658	0.132245555556	4.96953009259	0.244346095279	1.16355283466	-0.210085928481
7.05	0.7204715	0.383683611111	4.55073132716	0.314159265359	1.12476774017	-2.45638931762
7.1	0.746368	0.6011075	3.77771095679	0.366519142919	0.892057173242	-4.30406812452
7.15	0.782383	0.772035833333	2.72685	0.401425727959	0.659346606309	-5.47300777786
7.2	0.825944	0.882558055556	1.45992021605	0.436332312999	0.339369576777	-6.3348987665
7.25	0.8734495	0.922860555556	0.0741578703704	0.436332312999	0	-6.55037151366
7.3	0.9211265	0.889989722222	-1.31451574074	0.436332312999	-0.339369576777	-6.19484148084
7.35	0.965202	0.787470833333	-2.6026712963	0.401425727959	-0.649650332687	-5.18211956919
7.4	1.0024175	0.621401666667	-3.68444459877	0.366519142919	-0.862968352375	-3.96469854774
7.45	1.0291715	0.407884166667	-4.48207839506	0.314159265359	-1.03750127757	-2.77959843836
7.5	1.0446065	0.159971388889	-4.93713564815	0.261799387799	-1.16355283466	-1.18510010938
7.55	1.045807	-0.102804722222	-4.97498209877	0.191986217719	-1.17324910829	0.74876779638
7.6	1.033802	-0.354052222222	-4.60228719136	0.13962634016	-1.06659009844	2.40252113083
7.65	1.0092775	-0.576811666667	-3.87547654321	0.0872664625997	-0.950234814975	4.25019993773
7.7	0.9742915	-0.753266111111	-2.85298719136	0.0349065850399	-0.649650332687	6.01168964576
7.75	0.931588	-0.870457777778	-1.6162816358	0.0174532925199	-0.261799387799	6.18945466217
7.8	0.884597	-0.920002222222	-0.250210030864	0.0174532925199	0	5.68848052502
7.85	0.8367485	-0.897516666667	1.15566651235	0.0174532925199	0.252103114177	5.89317963482
7.9	0.7918155	-0.800619166667	2.46769444444	0.0349065850399	0.62056151182	5.49455505257
7.95	0.754257	-0.641600555556	3.56248904321	0.0872664625997	0.853272078753	4.10475583339
8	0.725788	-0.434085555556	4.38971188272	0.12217304764	1.02780500395	2.60183342195
8.05	0.709324	-0.189602777778	4.88187453704	0.191986217719	1.1344640138	0.732607340343
8.1	0.706237	0.0699338888889	4.97969305556	0.244346095279	1.07628637206	-0.705673246948
8.15	0.716527	0.324325555556	4.67533348765	0.296705972839	1.03750127757	-1.73455561464
8.2	0.7396795	0.552801666667	3.98827484568	0.349065850399	0.950234814975	-3.48527168531
8.25	0.7736365	0.735830277778	2.98499984568	0.401425727959	0.688435427176	-5.19828002523
8.3	0.815654	0.859405555556	1.76729691358	0.418879020479	0.378154671265	-5.99014237104
8.35	0.8621305	0.917334444444	0.421286574074	0.436332312999	0.0969627362219	-6.66349470592
8.4	0.9101505	0.904471944444	-0.986336728395	0.436332312999	-0.31028075591	-6.71197607403
8.45	0.955598	0.816911666667	-2.33959876543	0.401425727959	-0.639954059065	-5.51071550861
8.5	0.9945285	0.662275833333	-3.49388904321	0.366519142919	-0.862968352375	-4.11014265207
8.55	1.023855	0.455618333333	-4.35260648148	0.314159265359	-1.03750127757	-2.77959843836
8.6	1.0415195	0.213041111111	-4.85646712963	0.261799387799	-1.16355283466	-1.04504282372
8.65	1.045807	-0.0457333333333	-4.96561311728	0.191986217719	-1.16355283466	1.03965600505
8.7	1.0367175	-0.299172222222	-4.67977978395	0.13962634016	-1.03750127757	2.74727752629
8.75	1.014937	-0.52822	-4.02871496914	0.0872664625997	-0.862968352375	3.95931172906
8.8	0.9821805	-0.714392777778	-3.06889722222	0.0523598775598	-0.649650332687	5.18211956919
8.85	0.941192	-0.843303611111	-1.89295771605	0.0174532925199	-0.339369576777	6.18945466216
8.9	0.8954015	-0.90895	-0.578283179012	0.0174532925199	0	6.5126637829
8.95	0.847553	-0.9046625	0.812190123457	0.0174532925199	0.339369576777	6.15174693141
9	0.801934	-0.826153611111	2.15735354938	0.0523598775598	0.649650332687	4.99896773411
9.05	0.7623175	-0.681617222222	3.32492978395	0.0872664625997	0.853272078753	3.49065850399
9.1	0.731619	-0.482677222222	4.22017037037	0.13962634016	0.998716183086	1.96618881783
9.15	0.7125825	-0.246293055556	4.7803507716	0.191986217719	1.03750127757	0.700286428269
9.2	0.706237	0.00952777777778	4.97529969136	0.244346095279	1.0471975512	-0.226246384518
9.25	0.71344	0.2666825	4.77717484568	0.296705972839	1.02780500395	-1.44366740597
9.3	0.733677	0.503733611111	4.17501929012	0.349065850399	0.950234814975	-3.47988486663
9.35	0.765576	0.697909722222	3.23034012346	0.401425727959	0.678739153553	-5.45684732182
9.4	0.805707	0.835776666667	2.04683132716	0.418879020479	0.349065850399	-6.32412512914
9.45	0.851669	0.90895	0.70272654321	0.436332312999	0.00969627362219	-6.3348987665
9.5	0.8995175	0.90895	-0.706749382716	0.418879020479	-0.31028075591	-5.69925416238
9.55	0.9454795	0.835967222222	-2.0578941358	0.401425727959	-0.552687596465	-5.04206228354
9.6	0.985782	0.695908888889	-3.23192808642	0.366519142919	-0.824183257886	-4.15862402018
9.65	1.0171665	0.502209166667	-4.14018996914	0.314159265359	-0.998716183086	-2.72573025157
9.7	1.037575	0.269159722222	-4.72376635802	0.261799387799	-1.07628637206	-1.48137513672
9.75	1.0449495	0.0146727777778	-4.92393438272	0.209439510239	-1.16355283466	0.160527196634
9.8	1.038947	-0.238766111111	-4.72147969136	0.13962634016	-1.11507146655	2.6228420148
9.85	1.020425	-0.474959722222	-4.09537765432	0.0872664625997	-0.862968352375	4.22164979873
9.9	0.9900695	-0.664333833333	-3.19139268519	0.0523598775598	-0.593411945678	3.9318389538
9.95	0.9506245	-0.789281111111	-2.35609240741	0.0349065850399	-0.431484176188	2.84585630811
10	0.90552	-0.860548888889	-1.79516037037	0.0174532925199	-0.368458397643	1.92955845082
