Vernier Format 2
Untitled.cmbl 10/31/2024 11:05:13 .
Latest
Time	Position	Velocity 1	Acceleration 1	Angle 2	Velocity 2	Acceleration 2
t	x	v 1	acc 1	Angle 2	v 2	acc 2
s	m	m/s	m/s²	rad	rad/s	rad/s²

0.05	0.8333185	-0.18522	1.20709533951	0	-0.252103114177	2.17088792763
0.1	0.8223425	-0.13334125	1.43694239198	-0.0174532925199	-0.140595967522	2.05507132604
0.15	0.8165115	-0.0548228333333	1.71949393519	-0.0174532925199	-0.0290888208666	1.73724902398
0.2	0.8158255	0.0430655555556	1.90593137346	-0.0174532925199	0.0290888208666	1.42481354059
0.25	0.820799	0.147966388889	1.84535587963	-0.0174532925199	0.126051557088	0.902292128732
0.3	0.8312605	0.238003888889	1.53785743827	0	0.135747830711	0.210085928481
0.35	0.845495	0.306318055556	1.09786466049	0	0.0872664625997	0.517134593184
0.4	0.8628165	0.350431666667	0.582041358025	0	0.174532925199	1.01272191165
0.45	0.8816815	0.366057222222	0.0276305555556	0.0174532925199	0.261799387799	0.290888208666
0.5	0.9005465	0.353099444444	-0.527733024691	0.0349065850399	0.203621746066	-0.527908230541
0.55	0.9180395	0.312701666667	-1.06086512346	0.0349065850399	0.174532925199	-0.80263598317
0.6	0.93296	0.244578055556	-1.52439151235	0.0523598775598	0.135747830711	-1.1527791973
0.65	0.9434215	0.154159444444	-1.84388966049	0.0523598775598	0.0387850944888	-1.07197691712
0.7	0.948738	0.0532602777778	-1.9938992284	0.0523598775598	0.00969627362219	-0.705673246948
0.75	0.9489095	-0.05145	-1.98278348765	0.0523598775598	-0.00969627362219	-0.700286428269
0.8	0.9434215	-0.151586944444	-1.80964259259	0.0523598775598	-0.0387850944888	-1.03965600505
0.85	0.9331315	-0.237336944444	-1.50713564815	0.0523598775598	-0.135747830711	-1.00733509297
0.9	0.9190685	-0.306318055556	-1.09643549383	0.0349065850399	-0.164836651577	-0.511747774505
0.95	0.9015755	-0.351479722222	-0.580029938272	0.0349065850399	-0.174532925199	-0.188538653765
1	0.8827105	-0.366914722222	-0.00217021604938	0.0174532925199	-0.174532925199	-0.032320912074
1.05	0.863674	-0.351765555556	0.578706635802	0.0174532925199	-0.174532925199	0.032320912074
1.1	0.8463525	-0.306985	1.10749830247	0	-0.174532925199	0.193925472444
1.15	0.8319465	-0.23667	1.53137854938	0	-0.164836651577	0.549455505257
1.2	0.8219995	-0.148442777778	1.82266388889	-0.0174532925199	-0.135747830711	1.18510010938
1.25	0.816683	-0.0492586111111	1.97960756173	-0.0174532925199	-0.0290888208666	1.48137513672
1.3	0.8168545	0.0551658333333	1.9892941358	-0.0174532925199	0.0290888208666	1.36825194446
1.35	0.8223425	0.155874444444	1.83907283951	-0.0174532925199	0.126051557088	0.899598719392
1.4	0.832804	0.246197777778	1.51655756173	0	0.135747830711	0.210085928481
1.45	0.847896	0.313940277778	1.04397978395	0	0.0872664625997	0.517134593184
1.5	0.865389	0.353004166667	0.502643209877	0	0.174532925199	1.01272191165
1.55	0.884254	0.3644375	-0.0540436728395	0.0174532925199	0.261799387799	0.290888208666
1.6	0.9029475	0.347382777778	-0.602684876543	0.0349065850399	0.203621746066	-0.527908230541
1.65	0.9200975	0.302602222222	-1.10940385802	0.0349065850399	0.174532925199	-0.80263598317
1.7	0.9341605	0.233525833333	-1.5393183642	0.0523598775598	0.135747830711	-1.1527791973
1.75	0.944279	0.14406	-1.85077083333	0.0523598775598	0.0387850944888	-1.07197691712
1.8	0.949081	0.0419222222222	-2.00173317901	0.0523598775598	0.00969627362219	-0.705673246948
1.85	0.9485665	-0.0630738888889	-1.97886651235	0.0523598775598	-0.00969627362219	-0.700286428269
1.9	0.942564	-0.162543888889	-1.79016358025	0.0523598775598	-0.0387850944888	-1.03965600505
1.95	0.9317595	-0.248103333333	-1.45415061728	0.0523598775598	-0.135747830711	-1.00733509297
2	0.916839	-0.311748888889	-1.01709027778	0.0349065850399	-0.164836651577	-0.511747774505
2.05	0.899689	-0.351956111111	-0.516564351852	0.0349065850399	-0.174532925199	-0.188538653765
2.1	0.8806525	-0.366057222222	0.0429808641975	0.0174532925199	-0.174532925199	-0.032320912074
2.15	0.8617875	-0.348621388889	0.62041712963	0.0174532925199	-0.174532925199	0.032320912074
2.2	0.8446375	-0.302030555556	1.15032037037	0	-0.174532925199	0.193925472444
2.25	0.8305745	-0.229905277778	1.58505169753	0	-0.164836651577	0.549455505257
2.3	0.820799	-0.137390555556	1.87046157407	-0.0174532925199	-0.135747830711	1.18510010938
2.35	0.8165115	-0.0358244444444	1.98574768519	-0.0174532925199	-0.0290888208666	1.48137513672
2.4	0.8171975	0.066885	1.95165941358	-0.0174532925199	0.0290888208666	1.36825194446
2.45	0.8233715	0.164735277778	1.77650709877	-0.0174532925199	0.126051557088	0.899598719392
2.5	0.834176	0.249913611111	1.46415478395	0	0.135747830711	0.210085928481
2.55	0.8490965	0.316131666667	1.02571820988	0	0.0872664625997	0.517134593184
2.6	0.866761	0.357196388889	0.477923919753	0	0.174532925199	1.01272191165
2.65	0.8861405	0.3661525	-0.120579320988	0.0174532925199	0.261799387799	0.290888208666
2.7	0.9046625	0.343381111111	-0.685629475309	0.0349065850399	0.203621746066	-0.527908230541
2.75	0.9214695	0.294408333333	-1.17535725309	0.0349065850399	0.174532925199	-0.80263598317
2.8	0.935018	0.222378333333	-1.57203040123	0.0523598775598	0.135747830711	-1.1527791973
2.85	0.9444505	0.132150277778	-1.84293688272	0.0523598775598	0.0387850944888	-1.07197691712
2.9	0.9485665	0.032585	-1.97373209877	0.0523598775598	0.00969627362219	-0.705673246948
2.95	0.9478805	-0.0707913888889	-1.95753487654	0.0523598775598	-0.00969627362219	-0.700286428269
3	0.9413635	-0.170166111111	-1.7706845679	0.0523598775598	-0.0387850944888	-1.03965600505
3.05	0.930216	-0.254201111111	-1.4277375	0.0523598775598	-0.135747830711	-1.00733509297
3.1	0.915124	-0.317370277778	-0.969768981481	0.0349065850399	-0.164836651577	-0.511747774505
3.15	0.8974595	-0.354528611111	-0.430973148148	0.0349065850399	-0.174532925199	-0.188538653765
3.2	0.878423	-0.361293333333	0.131536265432	0.0174532925199	-0.174532925199	-0.032320912074
3.25	0.860244	-0.340046388889	0.668532407407	0.0174532925199	-0.174532925199	0.032320912074
3.3	0.843437	-0.293074444444	1.16471790123	0	-0.174532925199	0.193925472444
3.35	0.8298885	-0.220663333333	1.5819287037	0	-0.164836651577	0.549455505257
3.4	0.8206275	-0.129577777778	1.86887361111	-0.0174532925199	-0.135747830711	1.19048692806
3.45	0.8165115	-0.0276305555556	1.99993348765	-0.0174532925199	-0.0290888208666	1.5136960488
3.5	0.817712	0.0774608333333	1.95573518519	-0.0174532925199	0.0290888208666	1.5136960488
3.55	0.824572	0.175025277778	1.73929583333	-0.0174532925199	0.135747830711	1.19048692806
3.6	0.835891	0.2563925	1.39243179012	0	0.164836651577	0.549455505257
3.65	0.850983	0.317846666667	0.948119753086	0	0.174532925199	0.193925472444
3.7	0.8686475	0.354338055556	0.424833024691	0.0174532925199	0.174532925199	0.032320912074
3.75	0.8875125	0.3627225	-0.151279938272	0.0174532925199	0.174532925199	-0.032320912074
3.8	0.906206	0.339474722222	-0.72802808642	0.0349065850399	0.174532925199	-0.188538653765
3.85	0.92267	0.286595555556	-1.22876574074	0.0349065850399	0.164836651577	-0.511747774505
3.9	0.935704	0.211611944444	-1.60992978395	0.0523598775598	0.135747830711	-1.00733509297
3.95	0.9444505	0.120716944444	-1.86246882716	0.0523598775598	0.0387850944888	-1.03965600505
4	0.9482235	0.0193413888889	-1.96457484568	0.0523598775598	0.00969627362219	-0.700286428269
4.05	0.946337	-0.0818436111111	-1.91323070988	0.0523598775598	-0.00969627362219	-0.700286428269
4.1	0.93982	-0.177216666667	-1.72241049383	0.0523598775598	-0.0387850944888	-1.03965600505
4.15	0.928158	-0.260108333333	-1.38338040123	0.0523598775598	-0.135747830711	-1.00733509297
4.2	0.9128945	-0.320705	-0.918583641975	0.0349065850399	-0.164836651577	-0.511747774505
4.25	0.8950585	-0.355100277778	-0.37428287037	0.0349065850399	-0.174532925199	-0.188538653765
4.3	0.8761935	-0.359578333333	0.203153395062	0.0174532925199	-0.174532925199	-0.032320912074
4.35	0.857843	-0.333281666667	0.748354012346	0.0174532925199	-0.174532925199	0.032320912074
4.4	0.8418935	-0.281545833333	1.21918503086	0	-0.174532925199	0.193925472444
4.45	0.8288595	-0.208277222222	1.60442484568	0	-0.164836651577	0.549455505257
4.5	0.8202845	-0.116429444444	1.8695087963	-0.0174532925199	-0.135747830711	1.19048692806
4.55	0.8168545	-0.0150538888889	1.98056033951	-0.0174532925199	-0.0290888208666	1.5136960488
4.6	0.818741	0.0876555555556	1.93435061728	-0.0174532925199	0.0290888208666	1.5136960488
4.65	0.8257725	0.18522	1.71844058642	-0.0174532925199	0.135747830711	1.19048692806
4.7	0.837949	0.266206111111	1.34251682099	0	0.164836651577	0.549455505257
4.75	0.853384	0.323182222222	0.867027777778	0	0.174532925199	0.193925472444
4.8	0.87122	0.355100277778	0.332837037037	0.0174532925199	0.174532925199	0.032320912074
4.85	0.890085	0.357482222222	-0.225120216049	0.0174532925199	0.174532925199	-0.032320912074
4.9	0.9080925	0.331471388889	-0.759152160494	0.0349065850399	0.174532925199	-0.188538653765
4.95	0.9242135	0.279830833333	-1.24512175926	0.0349065850399	0.164836651577	-0.511747774505
5	0.937076	0.203703888889	-1.64290648148	0.0523598775598	0.135747830711	-1.00733509297
5.05	0.945308	0.10976	-1.89840972222	0.0523598775598	0.0387850944888	-1.03965600505
5.1	0.948395	0.00695527777778	-1.98368333333	0.0523598775598	0.00969627362219	-0.700286428269
5.15	0.945994	-0.0955636111111	-1.89671589506	0.0523598775598	-0.00969627362219	-0.705673246948
5.2	0.938448	-0.188745277778	-1.65894490741	0.0523598775598	-0.0387850944888	-1.07197691712
5.25	0.926443	-0.265539166667	-1.30954012346	0.0523598775598	-0.135747830711	-1.1527791973
5.3	0.9111795	-0.323182222222	-0.866710185185	0.0349065850399	-0.174532925199	-0.80263598317
5.35	0.893172	-0.356148333333	-0.334107407407	0.0349065850399	-0.203621746066	-0.527908230541
5.4	0.874307	-0.358530277778	0.243011265432	0.0174532925199	-0.261799387799	0.290888208666
5.45	0.856128	-0.330804444444	0.798427777778	0	-0.174532925199	1.01272191165
5.5	0.8401785	-0.276210277778	1.28831435185	0	-0.0872664625997	0.517134593184
5.55	0.8274875	-0.197129722222	1.6594742284	0	-0.135747830711	0.210085928481
5.6	0.8199415	-0.103948055556	1.87898364198	-0.0174532925199	-0.126051557088	0.899598719392
5.65	0.8168545	-0.00400166666667	1.9594404321	-0.0174532925199	-0.0290888208666	1.36825194446
5.7	0.819427	0.097755	1.89195200617	-0.0174532925199	0.0290888208666	1.48137513672
5.75	0.826973	0.191317777778	1.67260138889	-0.0174532925199	0.135747830711	1.18510010938
5.8	0.8391495	0.2701125	1.31970308642	0	0.164836651577	0.549455505257
5.85	0.854756	0.328327222222	0.843049537037	0	0.174532925199	0.193925472444
5.9	0.8731065	0.358530277778	0.274505864198	0.0174532925199	0.174532925199	0.032320912074
5.95	0.8919715	0.356053055556	-0.305524074074	0.0174532925199	0.174532925199	-0.032320912074
6	0.9098075	0.325278333333	-0.829975308642	0.0349065850399	0.174532925199	-0.188538653765
6.05	0.925414	0.270398333333	-1.28402685185	0.0349065850399	0.164836651577	-0.517134593184
6.1	0.937762	0.193223333333	-1.64248302469	0.0523598775598	0.135747830711	-1.03965600505
6.15	0.945308	0.101185	-1.87649583333	0.0523598775598	0.0387850944888	-1.18510010938
6.2	0.9482235	0.000381111111111	-1.97341450617	0.0523598775598	0	-0.991174636935
6.25	0.9454795	-0.102804722222	-1.90317361111	0.0523598775598	-0.0387850944888	-1.04504282373
6.3	0.9375905	-0.197225	-1.65608657407	0.0523598775598	-0.126051557088	-0.74876779638
6.35	0.925071	-0.274495277778	-1.26089552469	0.0349065850399	-0.135747830711	-0.172378197728
6.4	0.9091215	-0.326993333333	-0.771432407407	0.0349065850399	-0.0872664625997	-0.479426862431
6.45	0.8912855	-0.3524325	-0.249416049383	0.0349065850399	-0.174532925199	-0.867277807318
6.5	0.872935	-0.3524325	0.286627314815	0.0174532925199	-0.252103114177	-3.10708249253E-15
6.55	0.8549275	-0.324325555556	0.824152777778	0	-0.174532925199	0.867277807318
6.6	0.839321	-0.267730555556	1.30429984568	0	-0.0872664625997	0.48481368111
6.65	0.827316	-0.189316944444	1.67371296296	0	-0.135747830711	0.204699109802
6.7	0.81977	-0.0951825	1.90746111111	-0.0174532925199	-0.126051557088	0.899598719392
6.75	0.817369	0.00847972222222	1.96923287037	-0.0174532925199	-0.0290888208666	1.36825194446
6.8	0.820799	0.1089025	1.85712268519	-0.0174532925199	0.0290888208666	1.48137513672
6.85	0.828688	0.199035277778	1.61289398148	-0.0174532925199	0.135747830711	1.18510010938
6.9	0.8412075	0.275066944444	1.24522762346	0	0.164836651577	0.549455505257
6.95	0.857157	0.327755555556	0.774608333333	0	0.174532925199	0.193925472444
7	0.874993	0.354719166667	0.243222993827	0.0174532925199	0.174532925199	0.032320912074
7.05	0.8936865	0.353956944444	-0.328126080247	0.0174532925199	0.174532925199	-0.032320912074
7.1	0.911694	0.3215625	-0.884230709877	0.0349065850399	0.174532925199	-0.188538653765
7.15	0.9269575	0.2615375	-1.34770416667	0.0349065850399	0.164836651577	-0.517134593184
7.2	0.9386195	0.181504166667	-1.68377006173	0.0523598775598	0.135747830711	-1.03965600505
7.25	0.945651	0.0875602777778	-1.87977762346	0.0523598775598	0.0387850944888	-1.19048692806
7.3	0.9475375	-0.0114333333333	-1.9423433642	0.0523598775598	0	-1.02349554901
7.35	0.944622	-0.112046666667	-1.86273348765	0.0523598775598	-0.0387850944888	-1.19048692806
7.4	0.936047	-0.204847222222	-1.61299984568	0.0523598775598	-0.135747830711	-1.03965600505
7.45	0.923356	-0.279163888889	-1.21955555556	0.0349065850399	-0.164836651577	-0.511747774505
7.5	0.907235	-0.330518611111	-0.728398611111	0.0349065850399	-0.174532925199	-0.156217741691
7.55	0.8892275	-0.354528611111	-0.177375462963	0.0174532925199	-0.174532925199	0.113123192259
7.6	0.870534	-0.348145	0.374653395062	0.0174532925199	-0.164836651577	0.32320912074
7.65	0.853384	-0.314988333333	0.881478240741	0	-0.145444104333	0.527908230541
7.7	0.8381205	-0.258012222222	1.33113641975	0	-0.0775701889775	0.193925472444
7.75	0.82663	-0.178169444444	1.68530509259	0	-0.135747830711	0.0592550054689
7.8	0.81977	-0.0841302777778	1.90576728395	-0.0174532925199	-0.126051557088	0.867277807318
7.85	0.8178835	0.0181027777778	1.97574351852	-0.0174532925199	-0.0290888208666	1.36286512579
7.9	0.821485	0.121193333333	1.85923996914	-0.0174532925199	0.0290888208666	1.48137513672
7.95	0.8305745	0.211326111111	1.56959552469	-0.0174532925199	0.135747830711	1.18510010938
8	0.843437	0.281926944444	1.17339876543	0	0.164836651577	0.549455505257
8.05	0.859558	0.331280833333	0.702991203704	0	0.174532925199	0.193925472444
8.1	0.8775655	0.355005	0.169276851852	0.0174532925199	0.174532925199	0.032320912074
8.15	0.896259	0.349193055556	-0.387462962963	0.0174532925199	0.174532925199	-0.032320912074
8.2	0.9135805	0.315274166667	-0.920012808642	0.0349065850399	0.174532925199	-0.188538653765
8.25	0.928844	0.254772777778	-1.38666219136	0.0349065850399	0.164836651577	-0.517134593183
8.3	0.9399915	0.171595277778	-1.72950339506	0.0523598775598	0.135747830711	-1.03965600505
8.35	0.9465085	0.0752694444444	-1.91296604938	0.0523598775598	0.0387850944888	-1.19048692806
8.4	0.947709	-0.0261061111111	-1.93530339506	0.0523598775598	0	-1.02349554901
8.45	0.9437645	-0.124242222222	-1.80609614198	0.0523598775598	-0.0387850944888	-1.19048692806
8.5	0.9348465	-0.211707222222	-1.54651712963	0.0523598775598	-0.135747830711	-1.03965600505
8.55	0.921984	-0.283260833333	-1.17276358025	0.0349065850399	-0.164836651577	-0.511747774504
8.6	0.9056915	-0.333376944444	-0.692934104938	0.0349065850399	-0.174532925199	-0.156217741691
8.65	0.8875125	-0.355481388889	-0.142546141975	0.0174532925199	-0.174532925199	0.113123192259
8.7	0.8689905	-0.348335555556	0.42530941358	0.0174532925199	-0.164836651577	0.32320912074
8.75	0.8514975	-0.311653611111	0.958388580247	0	-0.145444104333	0.527908230541
8.8	0.8367485	-0.248484444444	1.39581944444	0	-0.0775701889775	0.193925472444
8.85	0.825944	-0.166831388889	1.70668966049	0	-0.135747830711	0.0592550054689
8.9	0.8195985	-0.0728875	1.88898780864	-0.0174532925199	-0.126051557088	0.867277807318
8.95	0.818398	0.0272494444444	1.93525046296	-0.0174532925199	-0.0290888208666	1.36286512579
9	0.8223425	0.126624166667	1.82959799383	-0.0174532925199	0.0290888208666	1.48137513672
9.05	0.831432	0.216471111111	1.56679012346	-0.0174532925199	0.135747830711	1.18510010938
9.1	0.8446375	0.289453888889	1.15540185185	0	0.164836651577	0.549455505257
9.15	0.8614445	0.336425833333	0.637461265432	0	0.174532925199	0.193925472444
9.2	0.879452	0.354338055556	0.0845854938272	0.0174532925199	0.174532925199	0.032320912074
9.25	0.897974	0.344238611111	-0.457545061728	0.0174532925199	0.174532925199	-0.032320912074
9.3	0.9149525	0.306794444444	-0.956430092593	0.0349065850399	0.174532925199	-0.188538653765
9.35	0.92953	0.246388333333	-1.39311990741	0.0349065850399	0.164836651577	-0.517134593183
9.4	0.940506	0.163877777778	-1.73262638889	0.0523598775598	0.135747830711	-1.03965600505
9.45	0.9465085	0.066885	-1.92016481481	0.0523598775598	0.0387850944888	-1.19048692806
9.5	0.947366	-0.0349669444444	-1.9378441358	0.0523598775598	0	-1.02349554901
9.55	0.942907	-0.133674722222	-1.78725231481	0.0523598775598	-0.0387850944888	-1.19048692806
9.6	0.9334745	-0.219710555556	-1.49003858025	0.0523598775598	-0.135747830711	-1.03965600505
9.65	0.9200975	-0.285928611111	-1.09971728395	0.0349065850399	-0.164836651577	-0.517134593183
9.7	0.904148	-0.332043055556	-0.639737345679	0.0349065850399	-0.174532925199	-0.188538653765
9.75	0.885969	-0.353671111111	-0.10288941358	0.0174532925199	-0.174532925199	-0.0344756395456
9.8	0.867447	-0.343476388889	0.443920339506	0.0174532925199	-0.174532925199	0.0150830923012
9.85	0.8504685	-0.304221944444	0.865799753086	0	-0.174532925199	0.11527791973
9.9	0.8360625	-0.2471315	1.06530083333	0	-0.168715161026	0.32320912074
9.95	0.825601	-0.186649166667	1.05587362654	-0.0174532925199	-0.155140377955	0.751999887588
10	0.820113	-0.141773333333	0.980450679012	-0.0174532925199	-0.0775701889775	1.18725483685
