Vernier Format 2
Untitled.cmbl 10/31/2024 12:03:39 .
Latest
Time	Position	Velocity 1	Acceleration 1	Angle 2	Velocity 2	Acceleration 2
t	x	v 1	acc 1	Angle 2	v 2	acc 2
s	m	m/s	m/s²	rad	rad/s	rad/s²

0.05	0.8888845	-0.159113888889	0.033400154321	-0.0349065850399	-0.562383870087	4.85998781219
0.1	0.8809955	-0.159161527778	0.096812808642	-0.0698131700798	-0.35391398721	5.5796667877
0.15	0.8727635	-0.154921666667	0.216391712963	-0.0872664625997	-0.0174532925199	6.10380424517
0.2	0.865046	-0.141201666667	0.401251774691	-0.0698131700798	0.300584482288	5.8969504079
0.25	0.858186	-0.115857777778	0.615997299383	-0.0523598775598	0.562383870087	5.73103639258
0.3	0.8528695	-0.0773655555556	0.784559567901	-0.0174532925199	0.872664625997	5.32648630979
0.35	0.850297	-0.0338236111111	0.875020524691	0.0349065850399	1.15385656104	3.78693353133
0.4	0.8494395	0.0118144444444	0.913713888889	0.10471975512	1.29930066537	1.36286512579
0.45	0.851326	0.0599297222222	0.888677006173	0.174532925199	1.25081929726	-0.490200499789
0.5	0.8556135	0.103852777778	0.788317746914	0.226892802759	1.21203420277	-1.68607424653
0.55	0.861959	0.141392222222	0.622693209877	0.296705972839	1.12476774017	-3.44217713588
0.6	0.870191	0.168260555556	0.402336882716	0.349065850399	0.862968352375	-5.01512819014
0.65	0.8792805	0.1826475	0.149797839506	0.383972435439	0.562383870087	-5.52148914597
0.7	0.8888845	0.184838888889	-0.1372	0.401425727959	0.31028075591	-5.88779281614
0.75	0.8984885	0.169880277778	-0.438701234568	0.418879020479	-0.00969627362219	-6.41570104668
0.8	0.906549	0.138819722222	-0.694839660494	0.401425727959	-0.349065850399	-6.55037151366
0.85	0.912723	0.0976597222222	-0.886612654321	0.383972435439	-0.688435427176	-6.11942601934
0.9	0.9166675	0.0477341666667	-1.0120617284	0.331612557879	-0.998716183086	-4.81042908034
0.95	0.9176965	-0.00676472222222	-1.05795385802	0.279252680319	-1.19264165553	-2.96813709213
1	0.9159815	-0.0613588888889	-1.02439490741	0.209439510239	-1.308996939	-0.888825082034
1.05	0.911351	-0.111475	-0.926735185185	0.13962634016	-1.25081929726	0.678739153553
1.1	0.9046625	-0.156255555556	-0.765927469136	0.0872664625997	-1.21203420277	1.76148970803
1.15	0.8954015	-0.191889444444	-0.518522839506	0.0174532925199	-1.12476774017	3.63610260832
1.2	0.8847685	-0.210945	-0.206170524691	-0.0349065850399	-0.853272078753	5.52687596465
1.25	0.873621	-0.212945833333	0.123331790123	-0.0698131700798	-0.523598775598	6.51805060158
1.3	0.8628165	-0.1980825	0.443835648148	-0.0872664625997	-0.174532925199	6.85203335968
1.35	0.8532125	-0.167593611111	0.737608796296	-0.0872664625997	0.174532925199	6.73891016742
1.4	0.845495	-0.122908333333	0.987607098765	-0.0698131700798	0.513902501976	6.2325492116
1.45	0.84035	-0.0652652777778	1.15169660494	-0.0349065850399	0.824183257886	5.18750638787
1.5	0.8388065	-0.00285833333333	1.2046287037	0.0174532925199	1.03750127757	3.95931172906
1.55	0.8401785	0.0581194444444	1.17641589506	0.0698131700798	1.21203420277	2.74189070761
1.6	0.8446375	0.117382222222	1.07393935185	0.13962634016	1.33808575986	1.00194827429
1.65	0.8521835	0.169403888889	0.880419598765	0.209439510239	1.33808575986	-1.22280784013
1.7	0.8621305	0.208467777778	0.611101080247	0.279252680319	1.20233792915	-3.22131757004
1.75	0.873621	0.232287222222	0.290650154321	0.331612557879	0.998716183086	-4.77272134959
1.8	0.885969	0.239623611111	-0.0753223765432	0.383972435439	0.698131700798	-5.67770688766
1.85	0.8984885	0.225427222222	-0.451775462963	0.401425727959	0.387850944888	-5.74234871181
1.9	0.909293	0.19208	-0.778207716049	0.418879020479	0.135747830711	-5.93088736557
1.95	0.918211	0.144726944444	-1.03630462963	0.418879020479	-0.184229198822	-6.41570104668
2	0.9242135	0.0858452777778	-1.22230802469	0.401425727959	-0.523598775598	-6.51805060158
2.05	0.927129	0.0191508333333	-1.32129104938	0.366519142919	-0.862968352375	-5.96320827765
2.1	0.9262715	-0.0507830555556	-1.31351003086	0.314159265359	-1.16355283466	-4.44412541017
2.15	0.9218125	-0.115953055556	-1.20960432099	0.244346095279	-1.33808575986	-2.25169020782
2.2	0.914438	-0.174548888889	-1.02582407407	0.174532925199	-1.37687085435	-0.183151835086
2.25	0.9039765	-0.222473611111	-0.747877623457	0.10471975512	-1.34778203348	1.73455561464
2.3	0.891457	-0.252676666667	-0.391962191358	0.0349065850399	-1.20233792915	3.59300805889
2.35	0.8779085	-0.262966666667	0.000317592592601	-0.0174532925199	-0.989019909463	5.32756367353
2.4	0.86436	-0.252771944444	0.39831404321	-0.0698131700798	-0.659346606309	6.71736289271
2.45	0.8518405	-0.222378333333	0.774449537037	-0.0872664625997	-0.252103114177	6.88974109043
2.5	0.841379	-0.173405555556	1.09717654321	-0.0872664625997	0.0387850944888	6.72813653006
2.55	0.833833	-0.108616666667	1.32272021605	-0.0872664625997	0.387850944888	6.90590154647
2.6	0.8302315	-0.036015	1.42858441358	-0.0523598775598	0.785398163397	6.03862373915
2.65	0.8302315	0.0378252777778	1.43747700617	0	1.02780500395	4.43873859149
2.7	0.8340045	0.110998611111	1.3550087963	0.0523598775598	1.21203420277	2.93042936137
2.75	0.8415505	0.177883611111	1.16334166667	0.12217304764	1.33808575986	1.08275055448
2.8	0.852355	0.231429722222	0.871738734568	0.191986217719	1.33808575986	-0.996561455614
2.85	0.865389	0.26754	0.510371296296	0.261799387799	1.21203420277	-2.5641256912
2.9	0.879795	0.284975833333	0.0899845679012	0.314159265359	1.0471975512	-3.49065850399
2.95	0.894887	0.278115833333	-0.360679320988	0.366519142919	0.862968352375	-4.40641767942
3	0.908607	0.247055277778	-0.772491049383	0.401425727959	0.639954059065	-5.88779281614
3.05	0.920269	0.197796666667	-1.11215632716	0.436332312999	0.290888208666	-7.52538569456
3.1	0.9290155	0.132721944444	-1.36834768519	0.436332312999	-0.164836651577	-8.04252028774
3.15	0.933989	0.0566902777778	-1.51692808642	0.418879020479	-0.601168964576	-6.85203335968
3.2	0.9348465	-0.0236288888889	-1.54948132716	0.366519142919	-0.862968352375	-5.20905366259
3.25	0.931588	-0.1029	-1.466325	0.331612557879	-1.07628637206	-4.19633175094
3.3	0.9242135	-0.174167777778	-1.28100972222	0.261799387799	-1.308996939	-2.74727752629
3.35	0.913752	-0.234288055556	-1.00655679012	0.191986217719	-1.37687085435	-0.808022801849
3.4	0.9002035	-0.278878055556	-0.635608641975	0.12217304764	-1.37687085435	1.03426918637
3.45	0.88494	-0.300887222222	-0.193678549383	0.0523598775598	-1.29930066537	3.25902530079
3.5	0.869162	-0.299076944444	0.271647530864	-0.0174532925199	-1.03750127757	5.16057229448
3.55	0.85407	-0.272875555556	0.717441666667	-0.0523598775598	-0.727220521664	6.0278501018
3.6	0.841036	-0.225236666667	1.10712777778	-0.0872664625997	-0.446028586621	6.88974109043
3.65	0.830746	-0.158351666667	1.40254182099	-0.10471975512	-0.0290888208666	7.41764932098
3.7	0.8247435	-0.0796522222222	1.57319490741	-0.0872664625997	0.339369576777	7.06750610684
3.75	0.8226855	0.00295361111111	1.6377191358	-0.0698131700798	0.688435427176	6.34567240386
3.8	0.824915	0.0877508333333	1.60040200617	-0.0174532925199	0.998716183086	5.03128864618
3.85	0.8316035	0.168165277778	1.43737114198	0.0349065850399	1.20233792915	3.44756395456
3.9	0.8422365	0.236479444444	1.15206712963	0.10471975512	1.34778203348	1.70762152124
3.95	0.8559565	0.287071944444	0.768838734568	0.174532925199	1.37687085435	-0.150830923012
4	0.8717345	0.316703333333	0.305524074074	0.244346095279	1.33808575986	-2.06853837273
4.05	0.888713	0.319656944444	-0.200347993827	0.314159265359	1.17324910829	-3.9754721851
4.1	0.904834	0.295170555556	-0.675307716049	0.366519142919	0.901753446864	-5.18211956919
4.15	0.9190685	0.248770277778	-1.07510385802	0.401425727959	0.649650332687	-6.17868102481
4.2	0.9303875	0.184553055556	-1.39301404321	0.436332312999	0.300584482288	-7.23449748589
4.25	0.938105	0.105948888889	-1.61601697531	0.436332312999	-0.126051557088	-7.26681839796
4.3	0.9413635	0.0181980555556	-1.72029320988	0.418879020479	-0.475117407487	-6.37260649725
4.35	0.9399915	-0.0714583333333	-1.69229212963	0.383972435439	-0.736916795286	-5.73157507445
4.4	0.933989	-0.155779166667	-1.54106512346	0.349065850399	-1.03750127757	-5.16057229448
4.45	0.924042	-0.230095833333	-1.27296404321	0.279252680319	-1.308996939	-3.54991350946
4.5	0.910322	-0.287643611111	-0.893652623457	0.209439510239	-1.40595967522	-1.5136960488
4.55	0.8943725	-0.322705833333	-0.434096141975	0.13962634016	-1.47383359057	0.840343713923
4.6	0.877051	-0.332614722222	0.0667473765432	0.0523598775598	-1.33808575986	3.38292213041
4.65	0.8600725	-0.316036388889	0.567273302469	0	-1.07628637206	4.81042908034
4.7	0.844466	-0.274590555556	1.029	-0.0523598775598	-0.833879531508	5.70464098106
4.75	0.8316035	-0.209134722222	1.39523719136	-0.0872664625997	-0.513902501976	6.59885288177
4.8	0.8230285	-0.1294825	1.63200246914	-0.10471975512	-0.164836651577	7.25604476061
4.85	0.818398	-0.0420175	1.76110385802	-0.10471975512	0.213318019688	7.70853752964
4.9	0.8185695	0.0507830555556	1.77634830247	-0.0872664625997	0.649650332687	7.19140293646
4.95	0.823543	0.141392222222	1.65158734568	-0.0349065850399	0.989019909463	5.51610232729
5	0.833147	0.221425555556	1.39248472222	0.0174532925199	1.20233792915	3.6684235204
5.05	0.8463525	0.284880555556	1.02323040123	0.0872664625997	1.34778203348	1.92848108708
5.1	0.8624735	0.326898055556	0.57066095679	0.157079632679	1.38656712797	0.328595939419
5.15	0.8799665	0.344715	0.0551552469136	0.226892802759	1.37687085435	-1.24974193353
5.2	0.8981455	0.333376944444	-0.478294444444	0.296705972839	1.29930066537	-3.44756395456
5.25	0.914438	0.294217777778	-0.955000925926	0.366519142919	1.02780500395	-5.49455505257
5.3	0.9283295	0.234383333333	-1.34696311728	0.401425727959	0.698131700798	-6.55037151366
5.35	0.9386195	0.155969722222	-1.64137145062	0.436332312999	0.349065850399	-7.04057201345
5.4	0.9444505	0.0650747222222	-1.80678425926	0.436332312999	-0.00969627362219	-7.25604476061
5.45	0.945308	-0.0306794444444	-1.82785123457	0.436332312999	-0.378154671265	-7.27220521664
5.5	0.941192	-0.1226225	-1.71976388889	0.401425727959	-0.785398163397	-6.37799331593
5.55	0.9327885	-0.207133888889	-1.49236759259	0.349065850399	-1.03750127757	-4.98280727807
5.6	0.919926	-0.277163055556	-1.13814598765	0.296705972839	-1.25081929726	-3.93237763567
5.65	0.904148	-0.324801944444	-0.688752469136	0.226892802759	-1.47383359057	-2.04160427934
5.7	0.8864835	-0.347954444444	-0.186268055556	0.13962634016	-1.50292241144	0.711060065627
5.75	0.8683045	-0.344333888889	0.338500771605	0.0698131700798	-1.37687085435	3.07048664703
5.8	0.850983	-0.313654444444	0.846860648148	0	-1.17324910829	4.9235522726
5.85	0.835891	-0.257154722222	1.28984938272	-0.0523598775598	-0.862968352375	6.18406784349
5.9	0.8244005	-0.179503333333	1.6119412037	-0.0872664625997	-0.523598775598	6.7442969861
5.95	0.8175405	-0.0904186111111	1.79900324074	-0.10471975512	-0.174532925199	6.93283563987
6	0.8151395	0.00466861111111	1.86723271605	-0.10471975512	0.174532925199	6.93283563987
6.05	0.8178835	0.101566111111	1.80027361111	-0.0872664625997	0.523598775598	6.7442969861
6.1	0.825601	0.190841388889	1.58669259259	-0.0523598775598	0.862968352375	6.18406784349
6.15	0.837606	0.2649675	1.2518441358	0	1.17324910829	4.9235522726
6.2	0.8528695	0.319275833333	0.826164197531	0.0698131700798	1.37687085435	3.07048664703
6.25	0.8703625	0.351193888889	0.317010339506	0.13962634016	1.50292241144	0.711060065627
6.3	0.8892275	0.353194722222	-0.238035648148	0.226892802759	1.47383359057	-2.04160427934
6.35	0.906892	0.325564166667	-0.756664351852	0.296705972839	1.25081929726	-3.92699081699
6.4	0.92267	0.2744	-1.20134691358	0.349065850399	1.03750127757	-4.950486366
6.45	0.9351895	0.201798333333	-1.55101635802	0.401425727959	0.785398163397	-6.22716239292
6.5	0.9434215	0.114619166667	-1.78105925926	0.436332312999	0.387850944888	-6.94360927722
6.55	0.947023	0.0183886111111	-1.87723688272	0.436332312999	0.0387850944888	-6.73891016742
6.6	0.945308	-0.0790805555556	-1.8265808642	0.436332312999	-0.252103114177	-6.92744882119
6.65	0.938791	-0.169213333333	-1.64671759259	0.418879020479	-0.659346606309	-6.90051472779
6.7	0.9279865	-0.248293888889	-1.34812762346	0.366519142919	-0.998716183086	-5.80160371728
6.75	0.9132375	-0.308890555556	-0.933087037037	0.314159265359	-1.24112302364	-4.4118044981
6.8	0.8960875	-0.344715	-0.439971604938	0.244346095279	-1.47383359057	-2.26246384518
6.85	0.877737	-0.354242777778	0.0898787037037	0.157079632679	-1.50292241144	0.490200499789
6.9	0.859558	-0.335758888889	0.617982253086	0.0872664625997	-1.38656712797	2.5910597846
6.95	0.843094	-0.290597222222	1.09696481481	0.0174532925199	-1.21203420277	4.11014265207
7	0.8295455	-0.221997222222	1.47770540123	-0.0349065850399	-0.989019909463	5.6938673437
7.05	0.8202845	-0.137485833333	1.72960925926	-0.0872664625997	-0.649650332687	7.22911066721
7.1	0.8154825	-0.0443041666667	1.85717561728	-0.10471975512	-0.213318019688	7.71392434832
7.15	0.815654	0.0532602777778	1.85352330247	-0.10471975512	0.164836651577	7.25604476061
7.2	0.8209705	0.146727777778	1.70827762346	-0.0872664625997	0.513902501976	6.59885288177
7.25	0.830746	0.229428888889	1.43064876543	-0.0523598775598	0.833879531508	5.69925416238
7.3	0.8446375	0.294313055556	1.03921589506	0	1.07628637206	4.77810816827
7.35	0.8611015	0.336044722222	0.572566512346	0.0523598775598	1.33808575986	3.23747802608
7.4	0.879109	0.354242777778	0.0451510802469	0.13962634016	1.46413731695	0.549455505257
7.45	0.8978025	0.341761388889	-0.503066666667	0.209439510239	1.37687085435	-1.85306562557
7.5	0.914438	0.3009825	-0.988295216049	0.279252680319	1.2217304764	-3.22131757004
7.55	0.9286725	0.2392425	-1.38338040123	0.331612557879	1.03750127757	-4.14785038283
7.6	0.939134	0.158542222222	-1.66974305556	0.383972435439	0.824183257886	-5.26292184938
7.65	0.944965	0.066885	-1.8223462963	0.418879020479	0.513902501976	-6.42108786536
7.7	0.945994	-0.0292502777778	-1.83711435185	0.436332312999	0.164836651577	-7.21833702985
7.75	0.941878	-0.121860277778	-1.72198703704	0.436332312999	-0.213318019688	-7.70315071096
7.8	0.9334745	-0.2058	-1.49040910494	0.418879020479	-0.649650332687	-7.19140293646
7.85	0.9207835	-0.275829166667	-1.13761666667	0.366519142919	-0.989019909463	-5.51610232729
7.9	0.9050055	-0.323944444444	-0.680812654321	0.314159265359	-1.20233792915	-3.6684235204
7.95	0.887341	-0.346048888889	-0.168429938272	0.244346095279	-1.34778203348	-1.92848108708
8	0.8693335	-0.341094444444	0.354803858025	0.174532925199	-1.38656712797	-0.328595939419
8.05	0.8521835	-0.309462222222	0.849295524691	0.10471975512	-1.37687085435	1.25512875221
8.1	0.8374345	-0.253724722222	1.2774632716	0.0349065850399	-1.29930066537	3.47988486663
8.15	0.825944	-0.177121388889	1.59277978395	-0.0349065850399	-1.02780500395	5.63999915691
8.2	0.8192555	-0.0883225	1.76348580247	-0.0698131700798	-0.688435427176	6.846646541
8.25	0.817026	0.00400166666667	1.80842515432	-0.10471975512	-0.319977029532	7.41764932098
8.3	0.8195985	0.0968975	1.73442608025	-0.10471975512	0.0969627362219	7.11060065627
8.35	0.826973	0.182838055556	1.52814969136	-0.0872664625997	0.387850944888	6.72813653006
8.4	0.8384635	0.254582222222	1.20113518519	-0.0698131700798	0.736916795286	6.68504198063
8.45	0.8532125	0.306603888889	0.778842901235	-0.0174532925199	1.12476774017	5.33833731088
8.5	0.8700195	0.335377777778	0.28599212963	0.0523598775598	1.32838948624	2.91965572402
8.55	0.8878555	0.336711666667	-0.238776697531	0.12217304764	1.38656712797	0.883438263355
8.6	0.904834	0.310033888889	-0.730780555556	0.191986217719	1.38656712797	-0.662578697516
8.65	0.9197545	0.260298888889	-1.14534475309	0.261799387799	1.33808575986	-2.43484204291
8.7	0.931588	0.191794166667	-1.46505462963	0.331612557879	1.16355283466	-4.4872199596
8.75	0.939477	0.109664722222	-1.67667716049	0.383972435439	0.862968352375	-6.00630282708
8.8	0.942907	0.0190555555556	-1.7620566358	0.418879020479	0.523598775598	-6.70658925535
8.85	0.9413635	-0.0717441666667	-1.71579398148	0.436332312999	0.174532925199	-6.92744882119
8.9	0.9355325	-0.157208333333	-1.54614660494	0.436332312999	-0.174532925199	-6.92744882119
8.95	0.9252425	-0.231715555556	-1.24681558642	0.418879020479	-0.523598775598	-6.70658925535
9	0.9115225	-0.286119166667	-0.844266975309	0.383972435439	-0.862968352375	-6.00630282708
9.05	0.8957445	-0.3181325	-0.385663271605	0.331612557879	-1.16355283466	-4.4872199596
9.1	0.878766	-0.32585	0.102158950617	0.261799387799	-1.33808575986	-2.43484204291
9.15	0.8621305	-0.307747222222	0.582464814815	0.191986217719	-1.38656712797	-0.662578697516
9.2	0.8470385	-0.265729722222	1.01370262346	0.12217304764	-1.38656712797	0.888825082034
9.25	0.8346905	-0.202465277778	1.35093302469	0.0523598775598	-1.32838948624	2.95197663609
9.3	0.826287	-0.125766666667	1.57049537037	-0.0174532925199	-1.12476774017	5.4891682339
9.35	0.821828	-0.0412552777778	1.67932376543	-0.0698131700798	-0.727220521664	7.00825110137
9.4	0.8219995	0.0466861111111	1.66990185185	-0.0872664625997	-0.358762124021	7.21295021117
9.45	0.82663	0.131006944444	1.53143148148	-0.10471975512	0	7.0782797442
9.5	0.835548	0.204561388889	1.27423441358	-0.0872664625997	0.349065850399	6.77661789818
9.55	0.8477245	0.262013888889	0.921283179012	-0.0698131700798	0.688435427176	6.20022829952
9.6	0.8624735	0.300125	0.485916666667	-0.0174532925199	0.998716183086	4.99896773411
9.65	0.878766	0.3129875	-0.000423456790129	0.0349065850399	1.20233792915	3.44217713588
9.7	0.894887	0.298981666667	-0.466966975309	0.10471975512	1.34778203348	1.70762152124
9.75	0.9094645	0.263633611111	-0.870838888889	0.174532925199	1.37687085435	-0.134670466975
9.8	0.921984	0.20923	-1.19078695988	0.244346095279	1.33808575986	-1.94733495246
9.85	0.9310735	0.138343333333	-1.35074776235	0.314159265359	1.17324910829	-3.38022872107
9.9	0.9362185	0.0643125	-1.3053849537	0.366519142919	0.93084226773	-3.43732899907
9.95	0.9369045	0.00119097222222	-1.1318470679	0.401425727959	0.780550026586	-2.59644660328
10	0.9334745	-0.0407788888889	-0.969027932099	0.436332312999	0.717524248042	-1.84767880689
