Vernier Format 2
Untitled.cmbl 10/31/2024 11:07:21 .
Latest
Time	Position	Velocity 1	Acceleration 1	Angle 2	Velocity 2	Acceleration 2
t	x	v 1	acc 1	Angle 2	v 2	acc 2
s	m	m/s	m/s²	rad	rad/s	rad/s²

0.05	0.8868265	-0.665229444444	0.856568395062	-0.0174532925199	-0.349065850399	0.0926532812787
0.1	0.852698	-0.633025555556	1.20468692901	-0.0349065850399	-0.349065850399	0.311358119646
0.15	0.820799	-0.571438	1.7782962037	-0.0523598775598	-0.337430322052	0.733684704079
0.2	0.793359	-0.465527222222	2.52033012346	-0.0698131700798	-0.300584482288	1.50938659385
0.25	0.7726075	-0.314893055556	3.19227135802	-0.0872664625997	-0.174532925199	2.04375900681
0.3	0.7602595	-0.129863611111	3.50508947531	-0.0872664625997	-0.048481368111	1.73886506958
0.35	0.7599165	0.0529744444444	3.42857083333	-0.0872664625997	0	1.40057285654
0.4	0.7664335	0.218853055556	3.15930524691	-0.0872664625997	0.048481368111	1.73994243332
0.45	0.78204	0.373774722222	2.73018472222	-0.0872664625997	0.174532925199	2.04160427934
0.5	0.8048495	0.501446944444	2.07409135802	-0.0698131700798	0.300584482288	1.48137513672
0.55	0.8336615	0.590722222222	1.20552854938	-0.0523598775598	0.339369576777	0.517134593184
0.6	0.866075	0.627880555556	0.21564537037	-0.0349065850399	0.339369576777	-0.253180477913
0.65	0.899003	0.606728888889	-0.68001867284	-0.0174532925199	0.31028075591	-0.813409620528
0.7	0.927815	0.552039444444	-1.42477330247	0	0.22301429331	-0.716446884306
0.75	0.955255	0.466098888889	-2.16248796296	0	0.213318019688	-0.247793659234
0.8	0.976521	0.333853333333	-2.82181018519	0.0174532925199	0.261799387799	-0.888825082034
0.85	0.9897265	0.173881944444	-3.25161882716	0.0349065850399	0.155140377955	-2.04699109802
0.9	0.9945285	-0.00238194444444	-3.40623348765	0.0349065850399	0.00969627362219	-2.37020021876
0.95	0.989555	-0.179312777778	-3.25082484568	0.0349065850399	-0.126051557088	-1.85306562557
1	0.975835	-0.338521944444	-2.82027515432	0.0174532925199	-0.174532925199	-1.24435511485
1.05	0.954569	-0.469243055556	-2.1821787037	0.0174532925199	-0.213318019688	-1.22819465881
1.1	0.927472	-0.562996388889	-1.38719151235	0	-0.31028075591	-1.00733509297
1.15	0.8964305	-0.6113975	-0.503384259259	-0.0174532925199	-0.339369576777	-0.328595939419
1.2	0.8645315	-0.613779444444	0.400325462963	-0.0349065850399	-0.339369576777	0.328595939419
1.25	0.8333185	-0.571095	1.28969058642	-0.0523598775598	-0.31028075591	1.00194827429
1.3	0.8055355	-0.482010277778	2.100875	-0.0698131700798	-0.213318019688	1.19048692806
1.35	0.7835835	-0.354338055556	2.74765231481	-0.0698131700798	-0.174532925199	1.06120327976
1.4	0.769006	-0.198654166667	3.17571419753	-0.0872664625997	-0.135747830711	1.37902558182
1.45	0.7630035	-0.0260108333333	3.3357808642	-0.0872664625997	-0.0290888208666	1.55679059823
1.5	0.7664335	0.146537222222	3.2113375	-0.0872664625997	0.0290888208666	1.55679059823
1.55	0.778267	0.304603055556	2.84330061728	-0.0872664625997	0.135747830711	1.37902558182
1.6	0.797818	0.438849444444	2.2682462963	-0.0698131700798	0.174532925199	1.06120327976
1.65	0.823543	0.538033611111	1.52571481481	-0.0698131700798	0.213318019688	1.19048692806
1.7	0.8532125	0.596343611111	0.664774228395	-0.0523598775598	0.31028075591	1.00194827429
1.75	0.8851115	0.606538333333	-0.239729475309	-0.0349065850399	0.339369576777	0.328595939419
1.8	0.91581	0.569570555556	-1.09013657407	-0.0174532925199	0.339369576777	-0.333982758098
1.85	0.943593	0.492490833333	-1.83901990741	0	0.31028075591	-1.03965600505
1.9	0.9660595	0.384922222222	-2.53428302469	0.0174532925199	0.213318019688	-1.37363876314
1.95	0.9838955	0.236479444444	-3.11923564815	0.0174532925199	0.164836651577	-1.54063014219
2	0.9910985	0.0581194444444	-3.36801651235	0.0349065850399	0.0969627362219	-2.22475611442
2.05	0.9893835	-0.116715277778	-3.23981496914	0.0349065850399	-0.0969627362219	-2.19243520235
2.1	0.9787505	-0.276210277778	-2.83334938272	0.0174532925199	-0.164836651577	-1.35747830711
2.15	0.960743	-0.407788888889	-2.23029398148	0.0174532925199	-0.203621746066	-0.904985538071
2.2	0.9365615	-0.504972222222	-1.50395972222	0	-0.271495661421	-0.263954115271
2.25	0.9080925	-0.554611944444	-0.813936882716	-0.0174532925199	-0.213318019688	-0.026934093395
2.3	0.8806525	-0.583862222222	-0.138787962963	-0.0174532925199	-0.22301429331	-0.635644604121
2.35	0.848582	-0.579479444444	0.741155246914	-0.0349065850399	-0.31028075591	-0.624870966763
2.4	0.820113	-0.516215	1.72960925926	-0.0523598775598	-0.329673303154	0.226246384518
2.45	0.794731	-0.400071388889	2.57435262346	-0.0698131700798	-0.300584482288	1.36825194446
2.5	0.7784385	-0.243339444444	3.07694290123	-0.0872664625997	-0.174532925199	2.1547274716
2.55	0.7702065	-0.0775561111111	3.22637021605	-0.0872664625997	-0.0387850944888	2.0254438233
2.6	0.770721	0.0883225	3.12791651235	-0.0872664625997	0.0290888208666	1.73994243332
2.65	0.7794675	0.242767777778	2.82710339506	-0.0872664625997	0.135747830711	1.41673331258
2.7	0.79576	0.377776388889	2.35505493827	-0.0698131700798	0.174532925199	1.06120327976
2.75	0.818398	0.483915833333	1.73839598765	-0.0698131700798	0.213318019688	1.15816601598
2.8	0.845495	0.555945833333	1.00549814815	-0.0523598775598	0.31028075591	0.851117351281
2.85	0.8755075	0.588340277778	0.17536404321	-0.0349065850399	0.329673303154	0
2.9	0.9060345	0.577192777778	-0.733850617284	-0.0174532925199	0.31028075591	-0.851117351281
2.95	0.935361	0.514595277778	-1.63883070988	0	0.213318019688	-1.1527791973
3	0.959028	0.410170833333	-2.45869598765	0	0.174532925199	-1.02349554901
3.05	0.9780645	0.264014722222	-3.11627145062	0.0174532925199	0.135747830711	-1.22819465881
3.1	0.987154	0.0822247222222	-3.38643688272	0.0174532925199	0.0387850944888	-1.22819465881
3.15	0.986125	-0.0971833333333	-3.16962700617	0.0174532925199	0	-1.03426918637
3.2	0.975835	-0.245245	-2.68635694444	0.0174532925199	-0.0387850944888	-1.22819465881
3.25	0.9604	-0.363961111111	-2.17413302469	0.0174532925199	-0.135747830711	-1.22819465881
3.3	0.9389625	-0.464002777778	-1.61003564815	0	-0.174532925199	-1.02349554901
3.35	0.912723	-0.531745277778	-0.910855555556	0	-0.213318019688	-1.1527791973
3.4	0.8840825	-0.558708888889	-0.125925462963	-0.0174532925199	-0.31028075591	-0.851117351281
3.45	0.8552705	-0.544798333333	0.679754012346	-0.0349065850399	-0.329673303154	0
3.5	0.828002	-0.489918333333	1.46055540123	-0.0523598775598	-0.31028075591	0.85650416996
3.55	0.804678	-0.395402777778	2.15544799383	-0.0698131700798	-0.213318019688	1.19048692806
3.6	0.787185	-0.268588055556	2.70774151235	-0.0698131700798	-0.174532925199	1.20664738409
3.65	0.776895	-0.117668055556	3.07620185185	-0.0872664625997	-0.126051557088	1.70762152124
3.7	0.774837	0.0477341666667	3.20212731481	-0.0872664625997	0	2.07931201009
3.75	0.781354	0.216566388889	2.98346481481	-0.0872664625997	0.126051557088	1.70223470256
3.8	0.7973035	0.3644375	2.36066574074	-0.0698131700798	0.174532925199	1.17432647202
3.85	0.820113	0.461239722222	1.52883780864	-0.0698131700798	0.213318019688	1.04504282373
3.9	0.845152	0.514595277778	0.722364351852	-0.0523598775598	0.300584482288	0.565615961294
3.95	0.8731065	0.528886944444	-0.000423456790127	-0.0349065850399	0.300584482288	-0.339369576777
4	0.8991745	0.511260555556	-0.653076234568	-0.0174532925199	0.22301429331	-0.527908230542
4.05	0.925071	0.467528055556	-1.34908040123	-0.0174532925199	0.213318019688	-0.172378197728
4.1	0.9482235	0.374822777778	-1.99082916667	0	0.261799387799	-0.700286428269
4.15	0.963487	0.25725	-2.40862222222	0.0174532925199	0.164836651577	-1.56756423559
4.2	0.97412	0.129101388889	-2.68757438272	0.0174532925199	0.048481368111	-1.51908286748
4.25	0.977207	-0.0156255555556	-2.82683873457	0.0174532925199	0	-1.1797132907
4.3	0.972748	-0.163306111111	-2.73468395062	0.0174532925199	-0.0387850944888	-1.26051557088
4.35	0.9604	-0.299839166667	-2.3881904321	0.0174532925199	-0.135747830711	-1.22819465881
4.4	0.9417065	-0.410551944444	-1.83033904321	0	-0.174532925199	-0.991174636935
4.45	0.9180395	-0.488298611111	-1.13216466049	0	-0.213318019688	-1.00733509297
4.5	0.8912855	-0.526409722222	-0.362161419753	-0.0174532925199	-0.300584482288	-0.560229142615
4.55	0.8638455	-0.52479	0.419910339506	-0.0349065850399	-0.300584482288	0.339369576777
4.6	0.837263	-0.48363	1.17758040123	-0.0523598775598	-0.22301429331	0.527908230542
4.65	0.813939	-0.404073055556	1.85675216049	-0.0523598775598	-0.213318019688	0.177765016407
4.7	0.7955885	-0.2924075	2.39533626543	-0.0698131700798	-0.261799387799	0.737994159022
4.75	0.783755	-0.157113055556	2.74341774691	-0.0872664625997	-0.164836651577	1.75071607067
4.8	0.779296	-0.00828916666667	2.85293425926	-0.0872664625997	-0.0387850944888	1.99312291123
4.85	0.783069	0.138152777778	2.71986296296	-0.0872664625997	0.0387850944888	1.99312291123
4.9	0.793702	0.270779444444	2.3968712963	-0.0872664625997	0.164836651577	1.75071607067
4.95	0.810852	0.384255277778	1.90465570988	-0.0698131700798	0.261799387799	0.743380977701
5	0.8333185	0.467623333333	1.25586697531	-0.0523598775598	0.213318019688	0.210085928481
5.05	0.8590435	0.514595277778	0.493538888889	-0.0523598775598	0.22301429331	0.673352334874
5.1	0.8864835	0.519168611111	-0.317857253086	-0.0349065850399	0.31028075591	0.630257785442
5.15	0.912723	0.480485833333	-1.07907376543	-0.0174532925199	0.329673303154	-0.220859565839
5.2	0.9358755	0.406550277778	-1.72690972222	0	0.300584482288	-1.33593103239
5.25	0.954569	0.302316388889	-2.22706512346	0.0174532925199	0.174532925199	-2.00389654859
5.3	0.9670885	0.175692222222	-2.53465354938	0.0174532925199	0.048481368111	-1.69684788388
5.35	0.972405	0.0401119444444	-2.64422299383	0.0174532925199	0	-1.21742102145
5.4	0.97069	-0.0907044444444	-2.65316851852	0.0174532925199	-0.0387850944888	-1.26051557088
5.45	0.9640015	-0.230286388889	-2.49760108025	0.0174532925199	-0.135747830711	-1.19587374674
5.5	0.947366	-0.357672777778	-1.98712391975	0	-0.174532925199	-0.845730532602
5.55	0.9261	-0.439706944444	-1.25597283951	0	-0.203621746066	-0.711060065627
5.6	0.901404	-0.477818055556	-0.58823441358	-0.0174532925199	-0.271495661421	-0.183151835086
5.65	0.8775655	-0.490585277778	-0.0420280864198	-0.0349065850399	-0.213318019688	0.193925472444
5.7	0.8521835	-0.489251388889	0.627668827161	-0.0349065850399	-0.213318019688	-0.010773637358
5.75	0.826287	-0.4364675	1.44795756173	-0.0523598775598	-0.261799387799	0.517134593184
5.8	0.806736	-0.340141666667	2.17868518519	-0.0698131700798	-0.174532925199	1.23896829617
5.85	0.790958	-0.209992222222	2.69974876543	-0.0698131700798	-0.0775701889775	1.02888236769
5.9	0.7846125	-0.0552611111111	2.87595972222	-0.0698131700798	-0.0969627362219	1.17432647202
5.95	0.7859845	0.0907997222222	2.73997716049	-0.0872664625997	0.00969627362219	1.7183951586
6	0.7942165	0.224569722222	2.42773070988	-0.0698131700798	0.126051557088	1.40057285654
6.05	0.809137	0.338998333333	1.9678037037	-0.0698131700798	0.164836651577	0.818796439207
6.1	0.8292025	0.426368055556	1.38364506173	-0.0523598775598	0.184229198822	0.549455505257
6.15	0.853041	0.481248055556	0.703097067901	-0.0523598775598	0.203621746066	0.565615961294
6.2	0.878766	0.499255555556	-0.0314416666667	-0.0349065850399	0.271495661421	0.150830923012
6.25	0.9046625	0.477055833333	-0.747665895062	-0.0174532925199	0.213318019688	-0.204699109802
6.3	0.927815	0.419984444444	-1.38089259259	-0.0174532925199	0.213318019688	-0.026934093395
6.35	0.947366	0.339284166667	-1.99225833333	0	0.261799387799	-0.700286428269
6.4	0.963487	0.219901111111	-2.54317561728	0.0174532925199	0.164836651577	-1.71300833992
6.45	0.9705185	0.0736497222222	-2.83578425926	0.0174532925199	0.0387850944888	-1.84229198822
6.5	0.9708615	-0.0758411111111	-2.82922067901	0.0174532925199	-0.0290888208666	-1.66452697181
6.55	0.9629725	-0.222473611111	-2.50607021605	0.0174532925199	-0.135747830711	-1.22819465881
6.6	0.9471945	-0.337473888889	-1.93043364198	0	-0.164836651577	-0.592550054689
6.65	0.9276435	-0.416078055556	-1.30281774691	0	-0.174532925199	-0.37707730753
6.7	0.9046625	-0.467146944444	-0.666203395062	-0.0174532925199	-0.184229198822	-0.506360955826
6.75	0.8796235	-0.484773333333	0.00756929012346	-0.0174532925199	-0.213318019688	-0.781088708454
6.8	0.854756	-0.466956388889	0.690446296296	-0.0349065850399	-0.300584482288	-0.301661846024
6.85	0.8316035	-0.414934722222	1.34966265432	-0.0523598775598	-0.290888208666	1.00194827429
6.9	0.811881	-0.328994166667	1.93223333333	-0.0698131700798	-0.174532925199	1.8207447135
6.95	0.7976465	-0.216280555556	2.38459104938	-0.0698131700798	-0.048481368111	1.5136960488
7	0.789586	-0.0848925	2.6798992284	-0.0698131700798	-0.00969627362219	0.883438263355
7.05	0.788557	0.0591675	2.76808410494	-0.0698131700798	0.00969627362219	0.743380977701
7.1	0.7952455	0.206085833333	2.53205987654	-0.0698131700798	0.0387850944888	1.0773637358
7.15	0.810509	0.324611388889	2.00321527778	-0.0698131700798	0.135747830711	1.15816601598
7.2	0.8288595	0.412076388889	1.3203912037	-0.0523598775598	0.174532925199	0.834956895244
7.25	0.8532125	0.461525555556	0.545200617284	-0.0523598775598	0.203621746066	0.678739153553
7.3	0.877394	0.459905833333	-0.108616666667	-0.0349065850399	0.271495661421	0.037707730753
7.35	0.8995175	0.442184166667	-0.614012345679	-0.0174532925199	0.203621746066	-0.490200499789
7.4	0.9221555	0.404263611111	-1.20547561728	-0.0174532925199	0.184229198822	-0.366303670172
7.45	0.9417065	0.326612222222	-1.85706975309	0	0.174532925199	-0.37707730753
7.5	0.9564555	0.212374166667	-2.36082453704	0	0.164836651577	-0.732607340343
7.55	0.9640015	0.0744119444444	-2.52634320988	0.0174532925199	0.126051557088	-1.51908286748
7.6	0.963144	-0.0524980555556	-2.41068657407	0.0174532925199	0	-2.00389654859
7.65	0.9581705	-0.1672125	-2.21928410494	0.0174532925199	-0.126051557088	-1.51908286748
7.7	0.9465085	-0.27783	-1.92323487654	0	-0.164836651577	-0.732607340343
7.75	0.92953	-0.367391111111	-1.45833225309	0	-0.174532925199	-0.37707730753
7.8	0.908607	-0.428940555556	-0.866180864198	-0.0174532925199	-0.184229198822	-0.366303670172
7.85	0.885283	-0.456475833333	-0.205217746914	-0.0174532925199	-0.203621746066	-0.490200499789
7.9	0.861616	-0.449711111111	0.466596450617	-0.0349065850399	-0.271495661421	0.037707730753
7.95	0.838978	-0.408932222222	1.11358549383	-0.0523598775598	-0.203621746066	0.678739153553
8	0.819427	-0.335663611111	1.68885154321	-0.0523598775598	-0.174532925199	0.834956895244
8.05	0.804335	-0.235240833333	2.1394625	-0.0698131700798	-0.135747830711	1.15816601598
8.1	0.795074	-0.114619166667	2.41148055556	-0.0698131700798	-0.0387850944888	1.0773637358
8.15	0.7925015	0.0149586111111	2.4653125	-0.0698131700798	-0.00969627362219	0.737994159022
8.2	0.796789	0.140248888889	2.31307978395	-0.0698131700798	0.00969627362219	0.851117351281
8.25	0.807079	0.252200277778	2.00019814815	-0.0698131700798	0.048481368111	1.36825194446
8.3	0.8226855	0.345763055556	1.54551141975	-0.0698131700798	0.164836651577	1.52985650483
8.35	0.842751	0.411981111111	0.964846296296	-0.0523598775598	0.261799387799	0.662578697516
8.4	0.8652175	0.4450425	0.310129166667	-0.0349065850399	0.213318019688	0.021547274716
8.45	0.8885415	0.444470833333	-0.37857037037	-0.0349065850399	0.213318019688	0.199312291123
8.5	0.9111795	0.406645555556	-1.04646759259	-0.0174532925199	0.271495661421	-0.188538653765
8.55	0.930559	0.335377777778	-1.60871234568	0	0.203621746066	-0.74876779638
8.6	0.945651	0.239718888889	-2.02073580247	0	0.174532925199	-1.02349554901
8.65	0.955255	0.126147777778	-2.2507257716	0.0174532925199	0.126051557088	-1.63220605974
8.7	0.9585135	0.00666944444444	-2.28661373457	0.0174532925199	0	-1.89077335633
8.75	0.9557695	-0.109855277778	-2.14528503086	0.0174532925199	-0.116355283466	-1.22819465881
8.8	0.9468515	-0.211516666667	-1.89438688272	0	-0.135747830711	-0.360916851493
8.85	0.934332	-0.302792777778	-1.5478404321	0	-0.0872664625997	-0.554842323936
8.9	0.9156385	-0.3712975	-1.08870740741	0	-0.174532925199	-1.05581646108
8.95	0.8960875	-0.413410277778	-0.568384876543	-0.0174532925199	-0.261799387799	-0.474040043752
9	0.8734495	-0.430750833333	0.0262543209877	-0.0349065850399	-0.213318019688	0.0538681867899
9.05	0.8518405	-0.416268611111	0.717441666667	-0.0349065850399	-0.213318019688	-0.010773637358
9.1	0.8298885	-0.359101944444	1.39867777778	-0.0523598775598	-0.261799387799	0.657191878837
9.15	0.8144535	-0.266396666667	1.88676466049	-0.0698131700798	-0.164836651577	1.52985650483
9.2	0.803306	-0.165783333333	2.24119799383	-0.0698131700798	-0.048481368111	1.37363876314
9.25	0.7966175	-0.0395402777778	2.47563425926	-0.0698131700798	-0.00969627362219	0.883438263355
9.3	0.798847	0.0953730555556	2.41200987654	-0.0698131700798	0.00969627362219	0.883438263355
9.35	0.807079	0.212755277778	2.09372916667	-0.0698131700798	0.048481368111	1.36825194446
9.4	0.8209705	0.309176388889	1.6379308642	-0.0698131700798	0.164836651577	1.49753559276
9.45	0.838978	0.379681944444	1.09050709877	-0.0523598775598	0.261799387799	0.511747774504
9.5	0.8600725	0.4210325	0.473742283951	-0.0349065850399	0.203621746066	-0.307048664703
9.55	0.8823675	0.429416944444	-0.19209058642	-0.0349065850399	0.184229198822	-0.32320912074
9.6	0.904491	0.401595833333	-0.846066666667	-0.0174532925199	0.174532925199	-0.333982758098
9.65	0.9238705	0.340618055556	-1.40402391975	-0.0174532925199	0.164836651577	-0.544068686578
9.7	0.939477	0.255535	-1.82843348765	0	0.135747830711	-1.00733509297
9.75	0.95011	0.152444444444	-2.11307055556	0	0.0387850944888	-1.00194827429
9.8	0.9550835	0.0392544444444	-2.24967771605	0	0.00969627362219	-0.511747774504
9.85	0.9543975	-0.0811766666667	-2.16887157407	0	0	-0.188538653765
9.9	0.9468515	-0.190022	-1.85318453704	0	0	-0.0420171856962
9.95	0.9338175	-0.269540833333	-1.47185111111	0	0	-0.00808022801849
10	0.9163245	-0.31899	-1.18862203704	0	0	0
