Vernier Format 2
Untitled.cmbl 10/24/2024 12:30:53 .
Latest
Time	Position	Velocity 1	Acceleration 1	Angle 2	Velocity 2	Acceleration 2
t	x	v 1	acc 1	Angle 2	v 2	acc 2
s	m	m/s	m/s²	rad	rad/s	rad/s²

0.05	0.961772	-0.27097	-0.720797561728	-0.209439510239	-6.16683002371	-7.23449748589
0.1	0.949424	-0.304269583333	-0.767838317901	-0.506145483078	-6.50135146368	-7.37455477154
0.15	0.933303	-0.348087833333	-0.766906712963	-0.837758040957	-6.95222818711	-6.15551770449
0.2	0.914438	-0.388638055556	-0.623323101852	-1.20427718388	-7.31099031113	-1.31169034834
0.25	0.8936865	-0.4158875	-0.346244737654	-1.58824961931	-7.2528126694	7.28028544466
0.3	0.872249	-0.426272777778	0.0166418518519	-1.95476876223	-6.61285861033	16.7530060917
0.35	0.850297	-0.416745	0.438224845679	-2.26892802759	-5.48809087016	24.5207986268
0.4	0.8295455	-0.382826111111	0.869674382716	-2.51327412287	-4.07243492132	30.0638350475
0.45	0.811195	-0.327850833333	1.26248348765	-2.68780704807	-2.39497958468	33.2366712494
0.5	0.796103	-0.254963333333	1.60834182099	-2.75762021815	-0.610865238198	33.2743789802
0.55	0.7849555	-0.164449444444	1.88020108025	-2.74016692563	1.01810873033	31.0873305965
0.6	0.7791245	-0.0614541666667	2.02290601852	-2.65290046303	2.54042368901	27.5266434497
0.65	0.7787815	0.0435419444444	2.02740524691	-2.47836753783	3.84942062801	22.2583347816
0.7	0.7835835	0.145775	1.91460694444	-2.25147473507	4.78995916936	16.4082496962
0.75	0.793702	0.2392425	1.69546805556	-1.98967534727	5.46869832292	10.8867605502
0.8	0.808108	0.318227777778	1.39798966049	-1.69296937443	5.8565492678	5.83392462935
0.85	0.8261155	0.381492222222	1.0330757716	-1.3962634016	6.031082193	1.24435511485
0.9	0.8470385	0.4244625	0.59855617284	-1.08210413624	5.99229709851	-3.45295077324
0.95	0.869505	0.443613333333	0.114174537037	-0.785398163397	5.6820163426	-8.02097301302
1	0.892486	0.436086388889	-0.374865123457	-0.506145483078	5.16811384063	-12.217304764
1.05	0.914095	0.403977777778	-0.818171450617	-0.261799387799	4.46028586621	-16.4028628775
1.1	0.933646	0.351670277778	-1.19928256173	-0.0523598775598	3.54883614572	-20.8846960185
1.15	0.9499385	0.281831666667	-1.5177220679	0.10471975512	2.36589076381	-25.1187355002
1.2	0.962458	0.196843888889	-1.75750447531	0.191986217719	0.989019909463	-28.2161562406
1.25	0.970004	0.101947222222	-1.89777453704	0.209439510239	-0.523598775598	-29.7352391081
1.3	0.972748	0.00371583333333	-1.94689552469	0.13962634016	-2.0556100079	-29.5305399982
1.35	0.9705185	-0.0967069444444	-1.89391049383	0	-3.51005105123	-28.124580323
1.4	0.962801	-0.190555555556	-1.72542762346	-0.209439510239	-4.94509954732	-24.7955263794
1.45	0.9509675	-0.272494444444	-1.47251805556	-0.506145483078	-6.10865238198	-18.8700258325
1.5	0.935018	-0.3404275	-1.15185540123	-0.837758040957	-6.87465799813	-11.5816601598
1.55	0.916153	-0.389305	-0.788529475309	-1.20427718388	-7.31099031113	-3.03277891627
1.6	0.8954015	-0.420175	-0.401278240741	-1.58824961931	-7.2528126694	6.93283563987
1.65	0.873278	-0.429893333333	0.000423456790119	-1.95476876223	-6.61285861033	16.7152983609
1.7	0.851669	-0.419984444444	0.404612962963	-2.26892802759	-5.48809087016	24.5585063575
1.75	0.8305745	-0.390829444444	0.832780709877	-2.51327412287	-4.07243492132	30.2469868826
1.8	0.811538	-0.336806944444	1.2563433642	-2.68780704807	-2.38528331106	33.7107112931
1.85	0.796103	-0.262680833333	1.62263348765	-2.75762021815	-0.572080143709	34.082401782
1.9	0.7846125	-0.171404722222	1.90650833333	-2.74016692563	1.14416028742	31.5452101842
1.95	0.7784385	-0.0675519444444	2.07276805556	-2.63544717051	2.6664752461	26.8856120269
2	0.777581	0.0423033333333	2.08568348765	-2.46091424531	3.87850944888	21.1217160403
2.05	0.7828975	0.147394722222	1.94790123457	-2.23402144255	4.77056662212	15.4493959714
2.1	0.7928445	0.240576388889	1.71341203704	-1.97222205475	5.37173558669	10.7359296272
2.15	0.807422	0.321086111111	1.40841728395	-1.69296937443	5.82746044694	6.4372483214
2.2	0.825601	0.384445833333	1.02974104938	-1.37881010908	6.031082193	1.88538653765
2.25	0.8466955	0.426939722222	0.585534876543	-1.08210413624	6.02138591938	-2.81730616911
2.3	0.8693335	0.443994444444	0.113592283951	-0.767944870878	5.77897907883	-8.0263598317
2.35	0.8919715	0.437991944444	-0.353321759259	-0.488692190558	5.19720266149	-12.8852702802
2.4	0.914095	0.407884166667	-0.797475	-0.244346095279	4.46028586621	-17.200112042
2.45	0.933646	0.355767222222	-1.18446157407	-0.0349065850399	3.51005105123	-21.8543233807
2.5	0.9502815	0.286976666667	-1.50851188272	0.12217304764	2.23983920673	-25.6789646428
2.55	0.9629725	0.202560555556	-1.76417391975	0.191986217719	0.862968352375	-27.9144943946
2.6	0.971033	0.106425277778	-1.91725354938	0.209439510239	-0.572080143709	-29.3958695313
2.65	0.973777	0.00590722222222	-1.95218873457	0.13962634016	-2.10409137602	-29.869909575
2.7	0.9715475	-0.0930863888889	-1.88020108025	0	-3.63610260832	-28.4316289877
2.75	0.964173	-0.18522	-1.72399845679	-0.226892802759	-5.07115110441	-24.2676181489
2.8	0.9526825	-0.268016388889	-1.49861358025	-0.523598775598	-6.14743747647	-18.0512293933
2.85	0.9369045	-0.338331388889	-1.19838271605	-0.855211333477	-6.88435427176	-11.1022332974
2.9	0.9180395	-0.389686111111	-0.849560185185	-1.2217304764	-7.31099031113	-2.81191935044
2.95	0.897288	-0.423795555556	-0.475753703704	-1.60570291183	-7.2528126694	7.15369520571
3	0.874993	-0.439421111111	-0.0551023148148	-1.97222205475	-6.60316233671	17.1947252234
3.05	0.852355	-0.431036666667	0.399690277778	-2.28638132011	-5.44930577567	25.3719159781
3.1	0.8309175	-0.398642222222	0.841355709877	-2.53072741539	-3.94638336423	30.7371873823
3.15	0.8117095	-0.345477222222	1.25078549383	-2.68780704807	-2.25923175397	33.2205107934
3.2	0.7955885	-0.272208611111	1.61813425926	-2.75762021815	-0.53329504922	33.2743789802
3.25	0.783755	-0.181027777778	1.91275432099	-2.74016692563	1.15385656104	31.1034910525
3.3	0.776895	-0.0759363888889	2.08848888889	-2.63544717051	2.6664752461	26.8479042961
3.35	0.7760375	0.0334425	2.12739398148	-2.46091424531	3.8882057225	21.3748965183
3.4	0.780325	0.141106388889	2.04587854938	-2.23402144255	4.79965544298	15.7833787295
3.45	0.790272	0.243625277778	1.82536342593	-1.97222205475	5.45900204929	10.4127205065
3.5	0.805364	0.329756388889	1.46600740741	-1.67551608191	5.82746044694	5.45684732182
3.55	0.824229	0.392830277778	1.03545771605	-1.37881010908	5.9438157304	1.56217741691
3.6	0.845495	0.433704444444	0.582570679012	-1.08210413624	5.99229709851	-2.47793659234
3.65	0.868476	0.451616666667	0.118091512346	-0.767944870878	5.7692828052	-7.73547162304
3.7	0.8916285	0.445423611111	-0.342417746914	-0.488692190558	5.19720266149	-12.7398261758
3.75	0.9139235	0.416173333333	-0.777837191358	-0.244346095279	4.46028586621	-17.16779113
3.8	0.933989	0.366819444444	-1.18689645062	-0.0349065850399	3.51005105123	-21.848936562
3.85	0.951482	0.296123333333	-1.5519162037	0.12217304764	2.23983920673	-25.6789646428
3.9	0.9643445	0.207515	-1.81879984568	0.191986217719	0.862968352375	-27.9144943946
3.95	0.9725765	0.109378888889	-1.96722145062	0.209439510239	-0.572080143709	-29.3958695313
4	0.975492	0.00609777777778	-1.99585771605	0.13962634016	-2.10409137602	-29.869909575
4.05	0.973091	-0.0948013888889	-1.91095462963	0	-3.63610260832	-28.4316289877
4.1	0.9657165	-0.18865	-1.73537885802	-0.226892802759	-5.07115110441	-24.2676181489
4.15	0.9537115	-0.270303055556	-1.50237175926	-0.523598775598	-6.14743747647	-18.0512293933
4.2	0.9382765	-0.3404275	-1.22495462963	-0.855211333477	-6.88435427176	-11.1022332974
4.25	0.9190685	-0.395212222222	-0.891111882716	-1.2217304764	-7.31099031113	-2.81191935044
4.3	0.897974	-0.430941388889	-0.515611574074	-1.60570291183	-7.2528126694	7.15369520571
4.35	0.875336	-0.448663055556	-0.0917842592593	-1.97222205475	-6.60316233671	17.200112042
4.4	0.8521835	-0.442946388889	0.388309876543	-2.28638132011	-5.44930577567	25.4096237088
4.45	0.8298885	-0.409789722222	0.868774537037	-2.53072741539	-3.94638336423	30.9149523988
4.5	0.8103375	-0.353861666667	1.30191790123	-2.68780704807	-2.24953548035	33.662229925
4.55	0.793702	-0.277353611111	1.67461280864	-2.75762021815	-0.494509954732	33.9369576777
4.6	0.7818685	-0.182838055556	1.95642330247	-2.74016692563	1.27021184451	31.2650956129
4.65	0.7750085	-0.0774608333333	2.12924660494	-2.61799387799	2.76343798232	25.8405692031
4.7	0.773808	0.0351575	2.17328611111	-2.44346095279	3.83002808077	20.4429768868
4.75	0.77861	0.145679722222	2.07541466049	-2.23402144255	4.77056662212	15.6217741691
4.8	0.7887285	0.247722222222	1.85087669753	-1.95476876223	5.42991322843	10.353465501
4.85	0.803992	0.334615555556	1.52312114198	-1.67551608191	5.75958653158	5.90934009086
4.9	0.822857	0.403596666667	1.10649259259	-1.37881010908	6.00199337214	1.75610288935
4.95	0.8453235	0.448377222222	0.619676080247	-1.06465084372	5.98260082489	-3.12435483382
5	0.868819	0.465813055556	0.121585030864	-0.767944870878	5.6820163426	-7.87014209001
5.05	0.892829	0.459238888889	-0.353268827161	-0.488692190558	5.16811384063	-12.1849838519
5.1	0.9156385	0.429321666667	-0.799539351852	-0.244346095279	4.46028586621	-16.4028628775
5.15	0.9365615	0.378538611111	-1.21950262346	-0.0349065850399	3.54883614572	-20.9224037492
5.2	0.9543975	0.305651111111	-1.59209166667	0.12217304764	2.36589076381	-25.3018873352
5.25	0.9677745	0.215994722222	-1.88025401235	0.209439510239	0.979323635841	-28.6901962843
5.3	0.976521	0.113475833333	-2.06064660494	0.226892802759	-0.562383870087	-30.5540355473
5.35	0.9794365	0.00390638888889	-2.09791080247	0.157079632679	-2.18166156499	-30.0530614101
5.4	0.9766925	-0.101661388889	-2.00448564815	0	-3.63610260832	-27.7798239276
5.45	0.968975	-0.199892777778	-1.81763533951	-0.209439510239	-4.99358091543	-24.2730049676
5.5	0.956284	-0.286690833333	-1.54895200617	-0.506145483078	-6.14743747647	-18.7353553655
5.55	0.9396485	-0.357386944444	-1.21944969136	-0.837758040957	-6.96192446073	-11.075299204
5.6	0.9197545	-0.409122777778	-0.866763117284	-1.2217304764	-7.31099031113	-2.01467018594
5.65	0.8981455	-0.444375555556	-0.494968055556	-1.58824961931	-7.1655462068	7.26143157929
5.7	0.87465	-0.461335	-0.0649476851852	-1.95476876223	-6.58376978947	16.3759287841
5.75	0.850983	-0.453236388889	0.415993364198	-2.26892802759	-5.47839459654	24.2676181489
5.8	0.828345	-0.420175	0.908261882716	-2.51327412287	-4.07243492132	30.1015427782
5.85	0.8079365	-0.361388611111	1.37443487654	-2.68780704807	-2.38528331106	33.6783903811
5.9	0.791301	-0.279735555556	1.7666087963	-2.75762021815	-0.572080143709	34.082401782
5.95	0.779296	-0.1809325	2.05911157407	-2.74016692563	1.14416028742	31.5775310963
6	0.7726075	-0.0682188888889	2.21430848765	-2.63544717051	2.6664752461	27.0310561312
6.05	0.772436	0.0466861111111	2.21811959877	-2.46091424531	3.8882057225	21.4072174303
6.1	0.7774095	0.158351666667	2.09357037037	-2.23402144255	4.79965544298	15.7564446361
6.15	0.788557	0.2615375	1.83478533951	-1.97222205475	5.45900204929	10.2672764022
6.2	0.804335	0.346334722222	1.46955385802	-1.67551608191	5.81776417331	5.16595911316
6.25	0.8240575	0.410170833333	1.05128441358	-1.37881010908	5.91472690954	1.22280784013
6.3	0.846181	0.452093055556	0.604696296296	-1.08210413624	5.90503063591	-2.14934065292
6.35	0.8700195	0.472958888889	0.112057253086	-0.785398163397	5.7692828052	-6.71736289271
6.4	0.8947155	0.464574444444	-0.402336882716	-0.488692190558	5.28446912409	-12.23346522
6.45	0.917525	0.430179166667	-0.867821759259	-0.244346095279	4.4990709607	-17.033120663
6.5	0.938448	0.375680277778	-1.28127438272	-0.0349065850399	3.55853241934	-21.3264151501
6.55	0.955941	0.300220277778	-1.6376662037	0.12217304764	2.36589076381	-25.3342082473
6.6	0.9691465	0.208277222222	-1.90290895062	0.209439510239	0.989019909463	-28.4370158064
6.65	0.977207	0.105186666667	-2.05413595679	0.226892802759	-0.53329504922	-30.2146659705
6.7	0.9797795	-0.00161972222222	-2.09044737654	0.157079632679	-2.09439510239	-30.3439496188
6.75	0.9770355	-0.107854444444	-2.0194654321	0.0174532925199	-3.63610260832	-28.6147808228
6.8	0.9688035	-0.208467777778	-1.82975679012	-0.209439510239	-5.07115110441	-24.3053258796
6.85	0.955598	-0.29498	-1.54074753086	-0.506145483078	-6.14743747647	-18.056616212
6.9	0.9386195	-0.364628055556	-1.19383055556	-0.837758040957	-6.88435427176	-11.1076201161
6.95	0.9183825	-0.415220555556	-0.815418981481	-1.20427718388	-7.31099031113	-2.84962708119
7	0.8964305	-0.447424444444	-0.406200925926	-1.58824961931	-7.2528126694	6.9759301893
7.05	0.8727635	-0.457714444444	0.0404401234568	-1.95476876223	-6.61285861033	16.7583929104
7.1	0.849611	-0.442851111111	0.483799382716	-2.26892802759	-5.48809087016	24.7416581926
7.15	0.8278305	-0.4090275	0.921865432099	-2.51327412287	-4.0627386477	30.7210269263
7.2	0.807765	-0.351575	1.36443070988	-2.68780704807	-2.34649821657	34.5241209137
7.25	0.791644	-0.2701125	1.74697098765	-2.75762021815	-0.446028586621	34.5726022818
7.3	0.7801535	-0.1723575	2.02295895062	-2.72271363311	1.27021184451	31.0550096844
7.35	0.7739795	-0.063455	2.17947916667	-2.61799387799	2.70526034059	26.0722024063
7.4	0.773465	0.0520216666667	2.18006141975	-2.44346095279	3.8882057225	20.6476759966
7.45	0.7794675	0.161591111111	2.01898904321	-2.21656815003	4.77056662212	15.2662441363
7.5	0.790272	0.256964166667	1.76645	-1.95476876223	5.37173558669	10.6982218965
7.55	0.8055355	0.340618055556	1.44250555556	-1.67551608191	5.82746044694	6.43186150272
7.6	0.8250865	0.405121111111	1.03138194444	-1.36135681656	6.031082193	1.88538653765
7.65	0.8470385	0.445614166667	0.573201697531	-1.06465084372	6.02138591938	-2.81730616911
7.7	0.870534	0.46305	0.0963364197531	-0.750491578358	5.77897907883	-8.0263598317
7.75	0.8943725	0.454856111111	-0.373118364198	-0.471238898038	5.19720266149	-12.8852702802
7.8	0.916839	0.424653055556	-0.812613580247	-0.226892802759	4.46028586621	-17.2054988607
7.85	0.937762	0.372250277778	-1.21526805556	-0.0174532925199	3.51005105123	-21.8920311114
7.9	0.954912	0.299172222222	-1.54048287037	0.13962634016	2.23983920673	-25.8621164779
7.95	0.9677745	0.217995555556	-1.8391257716	0.209439510239	0.853272078753	-28.393921257
8	0.9777215	0.115476666667	-2.10214537037	0.226892802759	-0.610865238198	-30.2469868826
8.05	0.9801225	-0.00219138888889	-2.15534212963	0.157079632679	-2.2301429331	-30.5432619099
8.1	0.976864	-0.109188333333	-2.01417222222	0	-3.77185043903	-28.410081713
8.15	0.968632	-0.204847222222	-1.80530216049	-0.226892802759	-5.14872129338	-24.2299104181
8.2	0.9561125	-0.289930277778	-1.56366712963	-0.523598775598	-6.28318530718	-17.8842380143
8.25	0.939477	-0.367391111111	-1.20992191358	-0.872664625997	-7.00070955522	-9.95484091878
8.3	0.9176965	-0.411790555556	-0.821506172839	-1.23918376892	-7.31099031113	-1.14200555995
8.35	0.8981455	-0.446090555556	-0.468502006173	-1.62315620435	-7.13645738593	8.16103029868
8.4	0.8727635	-0.466575277778	0.0241899691358	-1.97222205475	-6.47711077962	17.0762152124
8.45	0.8494395	-0.445328333333	0.54578287037	-2.28638132011	-5.40082440756	25.1079618628
8.5	0.827659	-0.406359722222	0.973897685185	-2.53072741539	-3.89790199612	31.2650956129
8.55	0.808108	-0.347001666667	1.36829475309	-2.68780704807	-2.12348392326	34.0015995018
8.6	0.7921585	-0.268588055556	1.72103425926	-2.74016692563	-0.368458397643	33.5598803701
8.65	0.7804965	-0.171976388889	1.99966882716	-2.72271363311	1.31869321262	30.7748951131
8.7	0.774494	-0.0636455555556	2.15888858025	-2.60054058547	2.80222307681	25.8890505712
8.75	0.7739795	0.0491633333333	2.18482530864	-2.42600766027	3.92699081699	20.4106559747
8.8	0.7794675	0.160066666667	2.07403842593	-2.19911485751	4.80935171661	15.4170750593
8.85	0.790272	0.262776111111	1.81546512346	-1.93731546971	5.46869832292	10.5150700614
8.9	0.8065645	0.34643	1.43964722222	-1.64060949687	5.8565492678	5.75850916785
8.95	0.8257725	0.408551111111	1.00719197531	-1.34390352404	6.031082193	1.22819465881
9	0.848239	0.448758333333	0.535249382716	-1.02974425868	5.99229709851	-3.49065850399
9.05	0.8717345	0.462478333333	0.0551552469136	-0.733038285838	5.6820163426	-8.20951166679
9.1	0.8954015	0.452950555556	-0.40043132716	-0.453785605519	5.15841756701	-12.7290525385
9.15	0.917868	0.421318333333	-0.831192746914	-0.209439510239	4.42150077172	-17.4048111518
9.2	0.9382765	0.369677777778	-1.24554521605	0	3.41308831501	-21.8974179301
9.25	0.9557695	0.295456388889	-1.6122587963	0.13962634016	2.20105411224	-25.7005119175
9.3	0.968632	0.203132222222	-1.85939876543	0.226892802759	0.814486984264	-28.7332908338
9.35	0.9763495	0.102709444444	-1.96251049383	0.226892802759	-0.717524248042	-30.5378750912
9.4	0.978579	0.00562138888889	-2.00707932099	0.157079632679	-2.29801684846	-30.6887060142
9.45	0.9773785	-0.0987077777778	-2.00289768519	0	-3.89790199612	-28.2807980647
9.5	0.9688035	-0.202751111111	-1.83187407407	-0.244346095279	-5.24568402961	-23.2495094185
9.55	0.9561125	-0.286881388889	-1.54604074074	-0.541052068118	-6.23470393907	-17.3563297837
9.6	0.9396485	-0.357958611111	-1.22283734568	-0.872664625997	-7.01040582884	-10.4181073252
9.65	0.919583	-0.410361388889	-0.862475617284	-1.25663706144	-7.39825677373	-1.09891101051
9.7	0.897974	-0.445423611111	-0.469719444444	-1.64060949687	-7.15584993318	9.01214764996
9.75	0.874307	-0.4604775	-0.0222420679012	-1.98967534727	-6.44802195876	18.1029428526
9.8	0.85064	-0.447233888889	0.410430200617	-2.30383461263	-5.27477285047	25.1661395045
9.85	0.8288595	-0.413505555556	0.72245433642	-2.53072741539	-3.77185043903	28.2560186988
9.9	0.8089655	-0.372269333333	0.944885601852	-2.68780704807	-2.23402144255	26.836053295
9.95	0.790615	-0.313797361111	1.06069574074	-2.74016692563	-0.950234814975	22.6978991858
10	0.7798105	-0.259727222222	1.08670657407	-2.72271363311	-0.155140377955	18.8991146534
