Vernier Format 2
Untitled.cmbl 10/31/2024 12:10:04 .
Latest
Time	Position	Velocity 1	Acceleration 1	Angle 2	Velocity 2	Acceleration 2
t	x	v 1	acc 1	Angle 2	v 2	acc 2
s	m	m/s	m/s²	rad	rad/s	rad/s²

0.05	0.8117095	-0.152444444444	1.51283114198	-0.0698131700798	-1.3962634016	0.196080199915
0.1	0.801934	-0.0872268055556	1.77996885802	-0.13962634016	-1.3962634016	0.692744882119
0.15	0.798504	0.0117763333333	2.07710319444	-0.209439510239	-1.3729923449	1.77441807286
0.2	0.8021055	0.1294825	2.19589341049	-0.279252680319	-1.28960439175	4.020721462
0.25	0.811881	0.246388333333	2.00219368827	-0.349065850399	-0.989019909463	6.67857779822
0.3	0.827659	0.340808611111	1.53595188272	-0.383972435439	-0.552687596465	8.02959192291
0.35	0.84721	0.404549444444	0.934357407407	-0.401425727959	-0.145444104333	8.40343713923
0.4	0.8693335	0.4364675	0.268789197531	-0.401425727959	0.31028075591	8.11254893057
0.45	0.8923145	0.432084722222	-0.409059259259	-0.366519142919	0.688435427176	7.24527112325
0.5	0.9139235	0.393306666667	-1.03529891975	-0.331612557879	1.03750127757	6.11942601934
0.55	0.9327885	0.324897222222	-1.57224212963	-0.261799387799	1.33808575986	4.11014265207
0.6	0.947366	0.231906111111	-1.99501080247	-0.191986217719	1.49322613782	1.22819465881
0.65	0.9567985	0.119383055556	-2.26157685185	-0.10471975512	1.47383359057	-1.85306562557
0.7	0.959714	-0.00285833333333	-2.32218410494	-0.0349065850399	1.25081929726	-3.90005672359
0.75	0.956284	-0.120812222222	-2.18461358025	0.0174532925199	1.03750127757	-5.02051500882
0.8	0.9471945	-0.227523333333	-1.88279475309	0.0698131700798	0.785398163397	-6.59885288177
0.85	0.9327885	-0.314988333333	-1.43297777778	0.10471975512	0.368458397643	-7.93478391416
0.9	0.9146095	-0.375299166667	-0.873697222222	0.10471975512	-0.0387850944888	-8.58120215564
0.95	0.8940295	-0.40474	-0.256138425926	0.10471975512	-0.513902501976	-8.52733396885
1	0.8727635	-0.4004525	0.35670941358	0.0523598775598	-0.959931088597	-7.02441155741
1.05	0.8528695	-0.366914722222	0.921441975309	0	-1.23142675002	-4.99896773411
1.1	0.8350335	-0.306413333333	1.4275257716	-0.0698131700798	-1.47383359057	-2.60183342195
1.15	0.821142	-0.219996388889	1.82531049383	-0.157079632679	-1.51261868506	0.166991379049
1.2	0.8123955	-0.117286944444	2.06519876543	-0.226892802759	-1.41565594884	2.28401111989
1.25	0.809137	-0.00695527777778	2.14046820988	-0.296705972839	-1.29930066537	4.62727724526
1.3	0.8117095	0.103090555556	2.05080123457	-0.366519142919	-0.979323635841	7.22372384853
1.35	0.81977	0.204561388889	1.79683302469	-0.401425727959	-0.523598775598	8.74280671601
1.4	0.832804	0.289358611111	1.38385679012	-0.418879020479	-0.0387850944888	8.88825082034
1.45	0.8497825	0.347859166667	0.853318364198	-0.401425727959	0.378154671265	8.46807896338
1.5	0.868819	0.376156666667	0.279216820988	-0.383972435439	0.824183257886	7.56309342531
1.55	0.8885415	0.375108611111	-0.285727469136	-0.314159265359	1.17324910829	5.80160371728
1.6	0.9074065	0.346239444444	-0.814677932099	-0.261799387799	1.40595967522	3.75461261926
1.65	0.9242135	0.291264166667	-1.28026867284	-0.174532925199	1.59988514766	0.74876779638
1.7	0.937419	0.214089166667	-1.64497083333	-0.0872664625997	1.50292241144	-2.53180477913
1.75	0.9461655	0.122241388889	-1.89110509259	-0.0174532925199	1.26051557088	-4.29868130584
1.8	0.95011	0.0196272222222	-1.99675756173	0.0349065850399	1.03750127757	-5.36527140428
1.85	0.9482235	-0.0847972222222	-1.92588148148	0.0872664625997	0.775701889775	-7.14292156835
1.9	0.941192	-0.179408055556	-1.69499166667	0.12217304764	0.329673303154	-8.93673218845
1.95	0.9297015	-0.259060277778	-1.33902330247	0.12217304764	-0.174532925199	-9.54544269918
2	0.914438	-0.317275	-0.883277932099	0.10471975512	-0.678739153553	-8.85592990827
2.05	0.896945	-0.349669444444	-0.369201388889	0.0523598775598	-1.12476774017	-6.73352334874
2.1	0.878423	-0.355195555556	0.167159567901	-0.0174532925199	-1.36717458073	-4.1801712949
2.15	0.860244	-0.3318525	0.677160339506	-0.0872664625997	-1.52231495868	-1.89077335633
2.2	0.8442945	-0.284308888889	1.11512052469	-0.174532925199	-1.55140377955	0.37707730753
2.25	0.831089	-0.217423888889	1.4746882716	-0.244346095279	-1.50292241144	2.98429754816
2.3	0.821828	-0.133103055556	1.73426728395	-0.331612557879	-1.28960439175	6.15174693141
2.35	0.817369	-0.0385875	1.860775	-0.383972435439	-0.853272078753	8.51656033149
2.4	0.8178835	0.0585958333333	1.84394259259	-0.418879020479	-0.358762124021	9.22223357844
2.45	0.8233715	0.151586944444	1.67916496914	-0.418879020479	0.126051557088	8.62968352375
2.5	0.83349	0.232763611111	1.36517175926	-0.401425727959	0.513902501976	7.66005616153
2.55	0.847553	0.292502777778	0.941926697531	-0.366519142919	0.872664625997	6.88974109043
2.6	0.863674	0.328613055556	0.467443364198	-0.314159265359	1.21203420277	5.78005644256
2.65	0.8813385	0.3404275	-0.0349351851852	-0.244346095279	1.50292241144	3.56068714682
2.7	0.8988315	0.324897222222	-0.528527006173	-0.157079632679	1.62897396853	0.183151835086
2.75	0.914781	0.285261666667	-0.968233950617	-0.0698131700798	1.51261868506	-3.04893937231
2.8	0.928158	0.225046111111	-1.33245972222	0	1.25081929726	-4.95587318468
2.85	0.9379335	0.1483475	-1.60198996914	0.0523598775598	0.998716183086	-6.35644604121
2.9	0.9434215	0.0606919444444	-1.76189783951	0.10471975512	0.639954059065	-7.93478391416
2.95	0.944279	-0.0331566666667	-1.7879404321	0.12217304764	0.174532925199	-8.82360899619
3	0.9399915	-0.124242222222	-1.66476743827	0.12217304764	-0.300584482288	-8.591975793
3.05	0.9314165	-0.204751944444	-1.41196373457	0.0872664625997	-0.698131700798	-7.87014209001
3.1	0.918897	-0.269540833333	-1.05239598765	0.0523598775598	-1.07628637206	-7.00286428269
3.15	0.9036335	-0.313178055556	-0.612159722222	-0.0174532925199	-1.46413731695	-4.78888180563
3.2	0.886655	-0.333091111111	-0.119679475309	-0.10471975512	-1.62897396853	-1.21203420277
3.25	0.869162	-0.325087777778	0.372747839506	-0.191986217719	-1.55140377955	1.85845244425
3.3	0.8532125	-0.293169722222	0.810866820988	-0.261799387799	-1.38656712797	3.91621717963
3.35	0.8391495	-0.242100833333	1.1961066358	-0.331612557879	-1.16355283466	5.84469826671
3.4	0.8281735	-0.171118888889	1.51105262346	-0.383972435439	-0.814486984264	7.77856617247
3.45	0.821485	-0.0864169444444	1.71346496914	-0.418879020479	-0.349065850399	8.93673218845
3.5	0.8192555	0.00543083333333	1.78598194444	-0.418879020479	0.135747830711	8.92057173242
3.55	0.8219995	0.0978502777778	1.71648209877	-0.401425727959	0.552687596465	8.43575805131
3.6	0.829374	0.182266388889	1.51375216049	-0.366519142919	0.998716183086	7.37455477154
3.65	0.840693	0.254105833333	1.18864320988	-0.296705972839	1.33808575986	5.28446912409
3.7	0.8556135	0.305460555556	0.759469753086	-0.226892802759	1.54170750593	2.70956979553
3.75	0.872249	0.331947777778	0.277946450617	-0.13962634016	1.63867024215	-0.474040043752
3.8	0.889742	0.333948611111	-0.221520833333	-0.0523598775598	1.50292241144	-3.70613125115
3.85	0.9067205	0.309271666667	-0.703520524691	0.0174532925199	1.21203420277	-5.81237735464
3.9	0.921641	0.26068	-1.1188257716	0.0698131700798	0.872664625997	-6.88974109043
3.95	0.9334745	0.193795	-1.44848688272	0.10471975512	0.513902501976	-7.62773524946
4	0.941535	0.112999444444	-1.69504459877	0.12217304764	0.126051557088	-8.48423941942
4.05	0.945308	0.0201988888889	-1.83023317901	0.12217304764	-0.349065850399	-8.93134536977
4.1	0.9437645	-0.0769844444444	-1.80191450617	0.0872664625997	-0.824183257886	-8.17719075471
4.15	0.9372475	-0.166450277778	-1.6165462963	0.0349065850399	-1.20233792915	-6.47495605215
4.2	0.9266145	-0.243148888889	-1.31112808642	-0.0349065850399	-1.50292241144	-3.96469854774
4.25	0.9122085	-0.301363611111	-0.907414969136	-0.12217304764	-1.63867024215	-0.700286428269
4.3	0.895573	-0.336616388889	-0.434837191358	-0.209439510239	-1.55140377955	2.2301429331
4.35	0.8775655	-0.346715833333	0.0798216049383	-0.279252680319	-1.37687085435	4.46567268489
4.4	0.8597295	-0.328327222222	0.587969753086	-0.349065850399	-1.12476774017	6.846646541
4.45	0.84378	-0.285452222222	1.04212716049	-0.401425727959	-0.678739153553	8.74280671601
4.5	0.830403	-0.221806666667	1.43244845679	-0.418879020479	-0.184229198822	9.25994130919
4.55	0.820799	-0.138819722222	1.73013858025	-0.418879020479	0.300584482288	8.591975793
4.6	0.815997	-0.0431608333333	1.8908404321	-0.383972435439	0.688435427176	7.43380977701
4.65	0.81634	0.0564997222222	1.89962716049	-0.349065850399	1.03750127757	6.19484148084
4.7	0.821828	0.152253888889	1.7663970679	-0.279252680319	1.33808575986	4.29868130584
4.75	0.8319465	0.238003888889	1.50173657407	-0.209439510239	1.50292241144	1.70762152124
4.8	0.846181	0.308318888889	1.09580030864	-0.12217304764	1.51261868506	-1.00733509297
4.85	0.8638455	0.352718333333	0.572884104938	-0.0523598775598	1.37687085435	-3.25902530079
4.9	0.8827105	0.366724166667	0.0140799382716	0.0174532925199	1.17324910829	-5.18211956919
4.95	0.9015755	0.353099444444	-0.528156481481	0.0698131700798	0.853272078753	-6.88974109043
5	0.9190685	0.312511111111	-1.03127608025	0.10471975512	0.475117407487	-8.2579930349
5.05	0.9338175	0.247341111111	-1.46468410494	0.12217304764	0	-8.93134536977
5.1	0.944622	0.161686388889	-1.79153981481	0.10471975512	-0.475117407487	-8.40343713923
5.15	0.950453	0.0633597222222	-1.99305231481	0.0698131700798	-0.862968352375	-7.21295021117
5.2	0.9513105	-0.0430655555556	-2.05058950617	0.0174532925199	-1.20233792915	-5.6669332503
5.25	0.9461655	-0.149109722222	-1.92868688272	-0.0523598775598	-1.47383359057	-3.22131757004
5.3	0.9358755	-0.242863055556	-1.6376132716	-0.13962634016	-1.54170750593	-0.328595939419
5.35	0.9211265	-0.317846666667	-1.21659135802	-0.209439510239	-1.50292241144	2.53719159781
5.4	0.903119	-0.368153333333	-0.699815277778	-0.296705972839	-1.29930066537	5.41375277239
5.45	0.883225	-0.390448333333	-0.119520679012	-0.349065850399	-0.901753446864	7.04057201345
5.5	0.8628165	-0.381301666667	0.484434567901	-0.383972435439	-0.53329504922	7.43919659569
5.55	0.84378	-0.340046388889	1.04472083333	-0.401425727959	-0.164836651577	7.77856617247
5.6	0.8278305	-0.273066111111	1.51713981481	-0.401425727959	0.22301429331	8.29031394697
5.65	0.815654	-0.184743611111	1.89105216049	-0.383972435439	0.688435427176	8.19335121075
5.7	0.8086225	-0.07889	2.13221080247	-0.331612557879	1.12476774017	6.4372483214
5.75	0.807422	0.0354433333333	2.20213410494	-0.261799387799	1.36717458073	3.7707730753
5.8	0.812224	0.148538055556	2.0923	-0.191986217719	1.50292241144	0.937306450145
5.85	0.8226855	0.251438055556	1.81033070988	-0.10471975512	1.47383359057	-2.00389654859
5.9	0.8381205	0.335377777778	1.37739907407	-0.0349065850399	1.25081929726	-3.96469854774
5.95	0.857157	0.394640555556	0.811766666667	0.0174532925199	1.03750127757	-5.17134593184
6	0.8789375	0.420556111111	0.155355709877	0.0698131700798	0.775701889775	-6.88974109043
6.05	0.900718	0.409885	-0.502113888889	0.10471975512	0.339369576777	-8.27415349094
6.1	0.9211265	0.367772222222	-1.10389891975	0.10471975512	-0.126051557088	-8.2579930349
6.15	0.9386195	0.296695	-1.62824429012	0.0872664625997	-0.513902501976	-7.54693296927
6.2	0.951825	0.200464444444	-2.03571558642	0.0523598775598	-0.872664625997	-6.69581561799
6.25	0.959371	0.0866075	-2.28417885802	0	-1.20233792915	-5.30062958013
6.3	0.960743	-0.0346811111111	-2.36018935185	-0.0698131700798	-1.46413731695	-2.70956979553
6.35	0.955941	-0.156255555556	-2.25633657407	-0.157079632679	-1.50292241144	0.495587318468
6.4	0.9447935	-0.268588055556	-1.95155354938	-0.226892802759	-1.37687085435	3.07048664703
6.45	0.928158	-0.358720833333	-1.46913040123	-0.296705972839	-1.17324910829	5.14441183844
6.5	0.9077495	-0.419793888889	-0.870256635802	-0.349065850399	-0.853272078753	6.87896745308
6.55	0.88494	-0.448663055556	-0.19463132716	-0.383972435439	-0.475117407487	8.21489848547
6.6	0.8614445	-0.441040833333	0.518311111111	-0.401425727959	0	8.71048580393
6.65	0.839321	-0.395879166667	1.20245848765	-0.383972435439	0.465421133865	7.74085844172
6.7	0.820456	-0.316226944444	1.77878317901	-0.349065850399	0.814486984264	5.89317963482
6.75	0.806736	-0.211516666667	2.1993816358	-0.296705972839	1.03750127757	4.21787902565
6.8	0.7986755	-0.0901327777778	2.45837839506	-0.244346095279	1.21203420277	2.93042936137
6.85	0.7973035	0.04116	2.53772361111	-0.174532925199	1.34778203348	1.29283648296
6.9	0.8027915	0.171881111111	2.41195694444	-0.10471975512	1.36717458073	-0.926532812787
6.95	0.814968	0.290787777778	2.07784953704	-0.0349065850399	1.28960439175	-3.77615989398
7	0.832804	0.386637222222	1.56419645062	0.0349065850399	0.989019909463	-6.49111650819
7.05	0.854756	0.453045833333	0.904450771605	0.0698131700798	0.562383870087	-7.69776389228
7.1	0.8796235	0.481533888889	0.143075462963	0.0872664625997	0.174532925199	-7.87552890869
7.15	0.9046625	0.467432777778	-0.625657407407	0.0872664625997	-0.213318019688	-7.9240102768
7.2	0.927815	0.4158875	-1.32716651235	0.0698131700798	-0.649650332687	-7.23449748589
7.25	0.9475375	0.331090277778	-1.93085709877	0.0174532925199	-0.989019909463	-5.51071550861
7.3	0.962115	0.217138055556	-2.38681419753	-0.0349065850399	-1.20233792915	-3.58762124021
7.35	0.970004	0.0844161111111	-2.64591682099	-0.10471975512	-1.34778203348	-1.51908286748
7.4	0.9708615	-0.0562138888889	-2.68868595679	-0.174532925199	-1.36717458073	0.845730532602
7.45	0.964173	-0.192461111111	-2.52401419753	-0.244346095279	-1.28960439175	3.58223442153
7.5	0.951139	-0.315941111111	-2.16566388889	-0.314159265359	-0.998716183086	5.97936873368
7.55	0.9317595	-0.417411944444	-1.60521882716	-0.349065850399	-0.601168964576	6.70120243667
7.6	0.907921	-0.483058333333	-0.886347993827	-0.366519142919	-0.31028075591	6.91128836515
7.65	0.881853	-0.508688055556	-0.0929487654321	-0.383972435439	0.048481368111	7.60080115606
7.7	0.855442	-0.492871944444	0.714900925926	-0.366519142919	0.48481368111	7.55231978795
7.75	0.8309175	-0.43561	1.47622330247	-0.331612557879	0.853272078753	6.44263514008
7.8	0.8103375	-0.340332222222	2.11532546296	-0.279252680319	1.16355283466	4.44412541017
7.85	0.79576	-0.216471111111	2.57032978395	-0.209439510239	1.32838948624	1.77226334539
7.9	0.7880425	-0.0753647222222	2.82244537037	-0.13962634016	1.33808575986	-0.845730532602
7.95	0.787871	0.0741261111111	2.85764521605	-0.0698131700798	1.21203420277	-2.89272163062
8	0.7955885	0.219805833333	2.65750895062	-0.0174532925199	1.02780500395	-4.46567268489
8.05	0.810509	0.3490025	2.23082330247	0.0349065850399	0.785398163397	-6.18945466217
8.1	0.8316035	0.450473333333	1.61135895062	0.0698131700798	0.378154671265	-7.23449748589
8.15	0.8569855	0.515643333333	0.849242592593	0.0698131700798	0.00969627362219	-7.25065794193
8.2	0.8847685	0.539558055556	-0.0102688271605	0.0698131700798	-0.349065850399	-7.03518519477
8.25	0.9128945	0.515548055556	-0.887724228395	0.0349065850399	-0.698131700798	-6.50727696423
8.3	0.938105	0.447043333333	-1.67948256173	0	-1.02780500395	-5.26830866806
8.35	0.959028	0.341666111111	-2.32419552469	-0.0698131700798	-1.28960439175	-2.74189070761
8.4	0.973434	0.207133888889	-2.77628858025	-0.13962634016	-1.32838948624	0.307048664703
8.45	0.9804655	0.0547847222222	-2.99743888889	-0.209439510239	-1.21203420277	2.55335205384
8.5	0.9790935	-0.102518888889	-2.97277253086	-0.261799387799	-1.03750127757	4.09936901471
8.55	0.9698325	-0.251152222222	-2.72134506173	-0.314159265359	-0.814486984264	5.66154643162
8.6	0.9533685	-0.383016666667	-2.25300185185	-0.349065850399	-0.475117407487	7.0782797442
8.65	0.9303875	-0.485440277778	-1.56948966049	-0.366519142919	-0.048481368111	7.37994159022
8.7	0.903119	-0.546132222222	-0.735015123457	-0.349065850399	0.31028075591	6.68504198063
8.75	0.873964	-0.561186111111	0.161866358025	-0.331612557879	0.591472690954	6.18406784349
8.8	0.845152	-0.529458611111	1.04869074074	-0.296705972839	0.959931088597	4.97742045939
8.85	0.8192555	-0.453141111111	1.85458194444	-0.226892802759	1.15385656104	2.58028614724
8.9	0.7983325	-0.338617222222	2.51856219136	-0.174532925199	1.20233792915	0.339369576777
8.95	0.784098	-0.192746944444	2.96949074074	-0.10471975512	1.17324910829	-1.66991379049
9	0.7784385	-0.0307747222222	3.15591759259	-0.0523598775598	1.02780500395	-3.43140349852
9.05	0.781011	0.132626666667	3.08991126543	0	0.824183257886	-4.96126000335
9.1	0.791987	0.287738888889	2.77771774691	0.0349065850399	0.513902501976	-6.01168964576
9.15	0.8106805	0.420079722222	2.22680046296	0.0523598775598	0.184229198822	-6.25948330499
9.2	0.8353765	0.518120555556	1.48278688272	0.0523598775598	-0.135747830711	-6.03862373915
9.25	0.8641885	0.573381666667	0.608189814815	0.0349065850399	-0.39754721851	-6.02246328312
9.3	0.894544	0.581766111111	-0.334054475309	0.0174532925199	-0.727220521664	-5.97398191501
9.35	0.924385	0.539843888889	-1.26613580247	-0.0349065850399	-1.08598264569	-4.21787902565
9.4	0.950453	0.450378055556	-2.08409552469	-0.10471975512	-1.19264165553	-1.50292241144
9.45	0.9708615	0.323849166667	-2.71732222222	-0.157079632679	-1.20233792915	0.80263598317
9.5	0.9838955	0.170166111111	-3.13088070988	-0.226892802759	-1.12476774017	3.17822302061
9.55	0.988526	0.000762222222222	-3.28734799383	-0.279252680319	-0.862968352375	4.96664682203
9.6	0.984067	-0.170261388889	-3.15649984568	-0.314159265359	-0.562383870087	5.51610232729
9.65	0.9708615	-0.326040555556	-2.7527337963	-0.331612557879	-0.31028075591	5.88240599746
9.7	0.9502815	-0.453331666667	-2.14184444444	-0.349065850399	0.00969627362219	6.37799331593
9.75	0.9242135	-0.546132222222	-1.37589580247	-0.331612557879	0.349065850399	6.36614231484
9.8	0.8940295	-0.596438888889	-0.498953842593	-0.314159265359	0.678739153553	5.64484729372
9.85	0.8624735	-0.595200277778	0.330830910494	-0.261799387799	0.959931088597	4.04388478232
9.9	0.832461	-0.551429666667	0.874253009259	-0.209439510239	1.06465084372	2.80707121362
9.95	0.806393	-0.488250972222	1.06009231481	-0.157079632679	1.18779351872	2.44453831653
10	0.786499	-0.436562777778	1.07603546296	-0.0872664625997	1.29930066537	2.27431484627
